label,ch1_0,ch1_1,ch1_2,ch1_3,ch1_4,ch1_5,ch1_6,ch1_7,ch1_8,ch1_9,ch1_10,ch1_11,ch1_12,ch1_13,ch1_14,ch1_15,ch1_16,ch1_17,ch1_18,ch1_19,ch1_20,ch1_21,ch1_22,ch1_23,ch1_24,ch1_25,ch1_26,ch1_27,ch1_28,ch1_29,ch1_30,ch1_31,ch1_32,ch1_33,ch1_34,ch1_35,ch1_36,ch1_37,ch1_38,ch1_39,ch1_40,ch1_41,ch1_42,ch1_43,ch1_44,ch1_45,ch1_46,ch1_47,ch1_48,ch1_49,ch1_50,ch1_51,ch1_52,ch1_53,ch1_54,ch1_55,ch1_56,ch1_57,ch1_58,ch1_59,ch1_60,ch1_61,ch1_62,ch1_63,ch1_64,ch1_65,ch1_66,ch1_67,ch1_68,ch1_69,ch1_70,ch1_71,ch1_72,ch1_73,ch1_74,ch1_75,ch1_76,ch1_77,ch1_78,ch1_79,ch1_80,ch1_81,ch1_82,ch1_83,ch1_84,ch1_85,ch1_86,ch1_87,ch1_88,ch1_89,ch1_90,ch1_91,ch1_92,ch1_93,ch1_94,ch1_95,ch1_96,ch1_97,ch1_98,ch1_99,ch1_100,ch1_101,ch1_102,ch1_103,ch1_104,ch1_105,ch1_106,ch1_107,ch1_108,ch1_109,ch1_110,ch1_111,ch1_112,ch1_113,ch1_114,ch1_115,ch1_116,ch1_117,ch1_118,ch1_119,ch1_120,ch1_121,ch1_122,ch1_123,ch1_124,ch1_125,ch1_126,ch1_127,ch1_128,ch1_129,ch1_130,ch1_131,ch1_132,ch1_133,ch1_134,ch1_135,ch1_136,ch1_137,ch1_138,ch1_139,ch1_140,ch1_141,ch1_142,ch1_143,ch1_144,ch1_145,ch1_146,ch1_147,ch1_148,ch1_149,ch1_150,ch1_151,ch1_152,ch1_153,ch1_154,ch1_155,ch1_156,ch1_157,ch1_158,ch1_159,ch1_160,ch1_161,ch1_162,ch1_163,ch1_164,ch1_165,ch1_166,ch1_167,ch1_168,ch1_169,ch1_170,ch1_171,ch1_172,ch1_173,ch1_174,ch1_175,ch1_176,ch1_177,ch1_178,ch1_179,ch1_180,ch1_181,ch1_182,ch1_183,ch1_184,ch1_185,ch1_186,ch1_187,ch1_188,ch1_189,ch1_190,ch1_191,ch1_192,ch1_193,ch1_194,ch1_195,ch1_196,ch1_197,ch1_198,ch1_199,ch2_0,ch2_1,ch2_2,ch2_3,ch2_4,ch2_5,ch2_6,ch2_7,ch2_8,ch2_9,ch2_10,ch2_11,ch2_12,ch2_13,ch2_14,ch2_15,ch2_16,ch2_17,ch2_18,ch2_19,ch2_20,ch2_21,ch2_22,ch2_23,ch2_24,ch2_25,ch2_26,ch2_27,ch2_28,ch2_29,ch2_30,ch2_31,ch2_32,ch2_33,ch2_34,ch2_35,ch2_36,ch2_37,ch2_38,ch2_39,ch2_40,ch2_41,ch2_42,ch2_43,ch2_44,ch2_45,ch2_46,ch2_47,ch2_48,ch2_49,ch2_50,ch2_51,ch2_52,ch2_53,ch2_54,ch2_55,ch2_56,ch2_57,ch2_58,ch2_59,ch2_60,ch2_61,ch2_62,ch2_63,ch2_64,ch2_65,ch2_66,ch2_67,ch2_68,ch2_69,ch2_70,ch2_71,ch2_72,ch2_73,ch2_74,ch2_75,ch2_76,ch2_77,ch2_78,ch2_79,ch2_80,ch2_81,ch2_82,ch2_83,ch2_84,ch2_85,ch2_86,ch2_87,ch2_88,ch2_89,ch2_90,ch2_91,ch2_92,ch2_93,ch2_94,ch2_95,ch2_96,ch2_97,ch2_98,ch2_99,ch2_100,ch2_101,ch2_102,ch2_103,ch2_104,ch2_105,ch2_106,ch2_107,ch2_108,ch2_109,ch2_110,ch2_111,ch2_112,ch2_113,ch2_114,ch2_115,ch2_116,ch2_117,ch2_118,ch2_119,ch2_120,ch2_121,ch2_122,ch2_123,ch2_124,ch2_125,ch2_126,ch2_127,ch2_128,ch2_129,ch2_130,ch2_131,ch2_132,ch2_133,ch2_134,ch2_135,ch2_136,ch2_137,ch2_138,ch2_139,ch2_140,ch2_141,ch2_142,ch2_143,ch2_144,ch2_145,ch2_146,ch2_147,ch2_148,ch2_149,ch2_150,ch2_151,ch2_152,ch2_153,ch2_154,ch2_155,ch2_156,ch2_157,ch2_158,ch2_159,ch2_160,ch2_161,ch2_162,ch2_163,ch2_164,ch2_165,ch2_166,ch2_167,ch2_168,ch2_169,ch2_170,ch2_171,ch2_172,ch2_173,ch2_174,ch2_175,ch2_176,ch2_177,ch2_178,ch2_179,ch2_180,ch2_181,ch2_182,ch2_183,ch2_184,ch2_185,ch2_186,ch2_187,ch2_188,ch2_189,ch2_190,ch2_191,ch2_192,ch2_193,ch2_194,ch2_195,ch2_196,ch2_197,ch2_198,ch2_199
hello,0.005051412359910303,0.008574822694263198,0.0077142131704803435,-0.00765572594907129,-0.01849084206442552,0.025893752896502125,-0.026170941736334108,0.021453095112719082,-0.016196950812586968,0.008565710161115042,-0.009903439539743984,-0.01082981759958801,0.03192228228616875,0.01810386753904698,0.015852165864375385,0.020986617045704942,-0.014702642975989118,0.021091086688849563,0.0029471936307018266,-0.015795700658851077,0.010517408072740243,-0.012609891707361476,-0.0011667320114253732,0.040292482463963185,-0.010500373603613115,0.0010085393040342133,-0.003032154306859574,0.020302663137377542,-0.03640945406158897,-0.0011321049847968579,0.005590729747508686,-0.021810450862942758,0.009304463546195333,0.018469093295589767,0.03398263941093406,0.03967082383514203,0.0234473489735773,0.043172142782248346,0.01705155242956909,0.019785927703570218,0.04442990907207371,0.005462171580074816,0.032260600442716,0.012448974029231653,0.039697990963293815,0.037188690641667986,0.023993991779462997,0.030811931505618693,0.05111770669852041,0.020505240257566143,0.06193523429101596,0.09005511498888027,0.0604284321087932,0.0925056342811541,0.0974146679504473,0.14916119481565682,0.12318389542456637,0.13589402415309315,0.1433660819298512,0.15155835063126105,0.17027232957210786,0.19526543979780064,0.1655612494758178,0.24368664747034666,0.21233991971903265,0.27057143898789965,0.2618810995643074,0.2708616820696271,0.3094578970375045,0.30915175866813394,0.3171744000831416,0.35778007886254176,0.3743897158679611,0.38026398939612016,0.4099813000162281,0.434983092254537,0.4642066019061025,0.49010417045997007,0.5389440148090128,0.5058411444376562,0.5212045853954851,0.5307632891929903,0.5856205089798907,0.6364538761373801,0.6181948622584191,0.6250110607257472,0.6946998608994767,0.6878445989328411,0.7055765022806834,0.7173905599679977,0.7293470757561216,0.7522172576329185,0.7385099961325537,0.7772406202097346,0.7738118588258933,0.7961489538855503,0.7805573052619006,0.7448905958748439,0.8238185864079957,0.8021231169957709,0.8059376004373827,0.8021942892200234,0.7680618250052086,0.775831033347077,0.7696228122759802,0.7560316487667075,0.7589249714617607,0.7702803508667356,0.733149863504037,0.7478598989363839,0.7156571235646462,0.7115479325040736,0.6610221008082429,0.6379572428369902,0.6454034247599623,0.6265953556156624,0.6204980964940948,0.5930259102006793,0.5756680962634456,0.5529698837778444,0.545095660891093,0.48144234855500867,0.500896127928096,0.4640373553303722,0.4378593227478491,0.43072149948973004,0.3850816854674905,0.3788217025399331,0.38076428276046087,0.3203932782492518,0.3156433987115205,0.30235560983747123,0.26420933931697127,0.25689047175359464,0.23355893518420334,0.23264200698421972,0.1753199374228722,0.167805405512847,0.19955933472199472,0.15811414148369357,0.12842480086016336,0.14329688871664184,0.14000056345229933,0.12181430098798196,0.1031688463154288,0.07400841580800288,0.07012440093154859,0.11058594863955626,0.07978209555148005,0.0724525607975777,0.03007783368149546,0.043830597202438926,0.05123704784873379,0.05949709339656999,0.051869399716138166,0.03564370776985084,0.04925612564568081,0.03559719766250404,0.03869550432098872,0.0067593133484453935,0.045436902635996736,0.01977519164398438,0.027561104740751616,-0.015407065598374686,-0.00511079568482339,0.038467119962240545,0.0052708667030835375,0.0054319840692774665,-0.008913875613219898,0.029382941463615496,0.007019104935319595,0.0037983963671098767,-0.0012000663329454712,-0.0123493959541575,0.0006395909455277336,0.011083777190226293,-0.028777027327147778,-0.00438893051506524,0.012242047484398576,0.018357227902151614,-0.03236492253487677,0.01641716928222209,0.020486927218672287,0.03507125583174836,-0.003778491580332494,0.011056331628857483,0.025240697159859146,-0.013718046510243151,0.023850081386688884,0.017960788866882803,0.019659896490241153,0.005536378156718542,-0.029288895001589668,-0.008684810462469035,0.030188807713482115,0.021396212446811377,0.024789983614156408,-0.0013214967634650563,0.01772102767371005,0.02619188709419172,0.02294155262448384,0.0038472157466243094,0.038127792818936204,-0.0025550944714391203,-0.020842631771192985,-0.036071017591567146,0.018966437715218377,-0.006471794177863007,0.011828169954930336,0.03657497687013087,0.01884540728622935,-0.008977978131214443,0.029936589048690072,0.017496502239715824,-0.01507875313037745,-0.04494365935378458,-0.024966437426759386,-0.0272130328068389,-0.0017129818491942966,-0.013894751980513084,0.011675690397124926,0.004251098333639106,-0.03352678048437069,-0.010015909430589262,0.004523376211672008,0.05133541447340605,-0.011882549014103478,0.01223207237099,0.03470240584422725,-0.01788729464399255,0.004890990736754632,0.017956749481831416,0.020253921998701505,0.005028026854758021,-0.004220002202604873,0.0288388338519203,0.05290016926524864,-0.0017676913807983911,-0.011501797780879569,-0.00948848915621521,0.03458118479594891,0.017984825277352765,0.02334615663848922,0.039173884156599385,0.023606460062109362,0.03629227511755142,0.020715644857855955,0.026366441554703454,0.01620160143328914,0.05250052546475324,0.04369510857871061,0.08485833742781956,0.06345533439782632,0.03557139792646991,0.07104425736946468,0.07874802195067185,0.0741719284533687,0.13295212103718493,0.10047992384786916,0.13747709284625034,0.10217898421709037,0.09832131561523477,0.13053273519785183,0.1531700468831068,0.13430154233144176,0.20079158312102416,0.18960814750795288,0.2078799128638746,0.23918061572451474,0.2525573609078607,0.2843117504103879,0.31809992974015217,0.2791398131424653,0.30094188375342257,0.29993268020175706,0.34122168179420875,0.34592990008480534,0.3845443070542095,0.4013413940270314,0.4042140450671187,0.39574002128607916,0.44055058875685527,0.46304494367307464,0.43689481277986636,0.44980735160474977,0.48986824976603693,0.5084668766417482,0.5285356071513704,0.5460143411216949,0.5042190809845619,0.5715297224021918,0.5366578234984568,0.5822537091353567,0.5708611790246199,0.556018471932186,0.6181161647241252,0.5955305263763278,0.5665519819596749,0.6156416768585279,0.5623101186127453,0.6039274294891859,0.5740642037323099,0.5625003682669731,0.5815816439574782,0.6034666462662075,0.5866902023360518,0.5898319490078408,0.5764460523320837,0.5928035942257415,0.5646922706616131,0.5284720964676574,0.5172946201113094,0.5271985194215353,0.5047728994711992,0.4760440598894143,0.4733126817878649,0.4659956075314893,0.436416551322569,0.40895899157963356,0.4132774677480366,0.4277296003489155,0.40517468508740556,0.35899842989923464,0.31404305911735125,0.3207194604472378,0.33052416297440956,0.3073319674670696,0.25534750651856936,0.2508176437876571,0.2458155945278525,0.24837283812303687,0.22028553805607315,0.20261157002304528,0.18138796752622466,0.13513154200457436,0.18316251823335408,0.17871408814098283,0.13701477971838547,0.10173383610030792,0.08382571530909105,0.1100275472052651,0.10246703073893118,0.0650098110147494,0.08867205402394245,0.10108964740737064,0.07721289700396503,0.08823682787028525,0.08108340924946593,0.0802546237962786,0.04218586150859967,0.04664706940464801,0.021798990106973608,0.062287592783216564,0.0396530058027174,0.046218544027326725,0.012812975773042686,0.02515167596148423,0.0020118294792815412,-0.004386351529063262,0.009010722485031184,-0.015469061710183364,0.007149000825254858,-0.03410587246405576,0.011739362373156448,-0.01599302019382036,0.0073573037233401264,-0.0003698984015402312,-0.0009207390312061083,0.058396575977832176,-0.011015126024330683,0.008646489896098439,-0.00527950881484097,0.03976122319284017,-0.004084278261964845,-0.006123934850848498,-0.031625705375416875,0.012991636180196551,0.02147070888937404,-0.008386495067359397,0.0005085366323313558,0.0228542930827357,-0.009125916534603595,0.020190358531777874,-0.046456659940249376,0.013160802732100319,-0.021819971091309422,-0.00786906639281713,-0.015347281319249083,-0.03876398009862781,-0.024759608113886243,0.005701108329487795,0.024959026959432674,0.012368562443237651,-0.013871376651383584,0.028323346566759864,0.011243344550862901,-0.012035101625158142,-0.0009314094816377344,-0.008285090575788419,0.0006338729027162385
hello,-0.02093506542460309,0.014668843892659905,-0.027232825112734154,0.0021202475957143854,0.02597692654868701,0.04408115069894161,-0.003388961051004792,-0.024172240165021674,0.021509841983979,-0.012322518572442605,0.0016103114973164037,-0.0002884175568641347,0.03297197110243628,-0.01970949868218642,-0.018349977912343763,-0.03923215754969129,-0.00687868987659379,0.019564727565876235,0.03945976739210369,-0.010104680834282148,-0.022924625693216263,-0.01426934708926459,0.004806254505948865,-0.032566951654343604,-0.003428000489940921,0.0030197303490797135,0.027107484509843724,-0.018890032137034593,0.030893277020694603,-0.020578299160873628,0.015883907764415412,-0.01140498732116671,-0.006727476001205173,0.03632078440583966,-0.007363382182158786,0.003925796255699209,0.049334606805134684,0.012622233706201105,-0.006237400998862677,0.039502131032020056,0.04843916976316046,0.018102911386992895,0.04903096036162325,0.020098122155882137,0.026075980157385818,0.015011857739149474,0.052179928980368426,0.07051229517360716,0.02543706558025843,0.06123300937059554,0.08993962712525844,0.08333189425176749,0.08011440883566744,0.07745811420786361,0.08843802959530499,0.09721144800227334,0.1249149884021386,0.19134599093765545,0.13959996269330616,0.15317595796436848,0.1762686943051859,0.15229895118261896,0.18959407516425197,0.24470496375656609,0.24313482141840956,0.2931584681931006,0.29203924703590645,0.24934624685874276,0.33182337424470953,0.3657732294577658,0.3263123984196507,0.34742963307210456,0.39553520564783,0.3930264035641224,0.4313130489218209,0.45222138287077535,0.4579594073224071,0.48351978324858286,0.5066294512457419,0.5257817732404532,0.5350759738619264,0.5329459097093621,0.5488981057242746,0.6348325696023427,0.592701214109634,0.640218643737009,0.6569226865076099,0.6469436469450112,0.7029166956158368,0.7364137656145727,0.7483674684394446,0.7562144569365756,0.7864105887834218,0.7617875375351524,0.7707221935625048,0.7572242768470278,0.7605115783159622,0.7944963802892085,0.8049870970337446,0.810357517201773,0.7972234198380285,0.7729177535417908,0.7653791993912258,0.8176948014039979,0.8193226334304123,0.7627778300165596,0.7694018920349928,0.7832804375538156,0.7061318763420326,0.7445061491835079,0.7006126375264247,0.7113250167609111,0.6728368131369071,0.6487342276370763,0.6348535815254029,0.6316724660149237,0.6139220479540365,0.563709878259255,0.540186958530277,0.592670705646029,0.5188201991108575,0.522747493027924,0.5001637293423646,0.42764991073779773,0.44311392107513164,0.3970413279232582,0.39757327488373273,0.39330825767805516,0.34856611726747155,0.3004077884607699,0.2858867421285569,0.30844675349809275,0.24976124079414463,0.2619339430804102,0.23535949922485416,0.23011837215234776,0.1925129395125625,0.193600665603089,0.13403227436665377,0.19168785599345098,0.16848617093673027,0.15434528690477878,0.13735534895722698,0.05992913930535452,0.09742474229775709,0.0673281778905105,0.05633731374004452,0.11155694182719972,0.0650640531602708,0.04667779999820042,0.07787889364504622,0.049915241897693155,0.07269738105906105,0.08156027157471198,0.04289797694826872,0.03890947730080665,0.05025913359745715,0.015775061298008947,0.03480143944342488,0.04966730459607624,0.019562051409938108,0.017008191824499017,0.0029167378373579685,0.01690819373035811,0.0022484853089042283,0.02500669345076397,-0.017896279172949073,0.0028054679741974413,0.01688650298785695,-0.0027871187556111196,-0.01603332479064064,0.005022840805376736,0.013657118706729296,0.010376352138979056,0.015430874239277395,-0.023022802839922123,0.01843968072576774,-0.01059455125443775,0.010798089691872247,0.028042265508089873,-0.01296380604842658,-0.01206008254983299,0.016955394245951997,0.004861851114660072,-0.019312318854941616,0.009119608895338638,-0.041078981778194704,0.037885376611820114,0.0261719157675213,-0.012628337808234998,-0.030042374902481125,-0.010834935969803361,0.005064361791685247,-0.01113145741122798,-0.015527076610144765,0.01719186337512389,-0.009415004082164828,0.010899652847032525,0.020445669813765985,-0.03445036328218716,-0.02214488619285805,0.00878073985053353,-0.030191482425926362,-0.002256171035411206,-0.009627923148282811,-0.0058197718494853055,0.006265501756588518,-0.013713450676212664,-0.016666382882015014,-0.007112726222191724,0.03807375551986988,-0.0016604310339742875,-0.013776393486830033,-0.0006113232400769746,-0.031673894881423206,-0.006313063369029806,0.010714850516855218,0.0285624523270654,0.023895635976558492,-0.0006265741416074049,-0.012485309154450187,0.012963983087971072,-0.0014705509139762674,0.013709327795622846,0.0322068720979944,0.03552720392075925,0.01204224979914991,-0.016476560697032603,0.02611044412508082,-0.024851417708793108,0.02163746641719164,-0.02894998286828579,-0.013248801294620997,0.029816455719159755,0.02057703061438028,0.016685893145139352,0.017929996900545555,0.012591318666598636,0.03455700327313034,-0.027979646342225408,0.04768465219634803,0.0278966172040606,0.027973695458516173,0.007325020037758687,0.04786122585603567,0.01562955848976485,0.023201860035164293,0.03432115613589924,0.08612458751402334,0.03897074114216473,0.05062369837288358,0.0439392533240768,0.04457522859379691,0.0632746757772798,0.08739017993298002,0.05859555661308245,0.10142298705282125,0.061986364460256696,0.10024026604674163,0.10174587677478572,0.1190816051052118,0.12952828195467936,0.14973979552552694,0.14943191801941733,0.13921539343096706,0.1711518340004726,0.1848376243121385,0.20108685065606177,0.20330648947425542,0.20372061749261924,0.270193640066839,0.2573083702582147,0.28975950730982275,0.29359994042414783,0.32199275805684036,0.34738263239759654,0.3551479496967633,0.3803938149439256,0.4012492129778646,0.38938574782922836,0.4038331247256085,0.4414200801144459,0.39202812306227897,0.47903103251876794,0.4899971082445288,0.5247801676443058,0.5176384546487197,0.517963161357619,0.5277848198103526,0.5364690707822835,0.5975732369066834,0.5627811995030224,0.5563040708499427,0.5576611897693526,0.6163662733982681,0.5836110214844568,0.5665431093399995,0.616287319226818,0.6209732269410065,0.5622877550287759,0.6110802851437275,0.5570345386585565,0.5954598872941816,0.5895367012841516,0.5792697198652618,0.5955981830761492,0.55642450119135,0.6003858129914192,0.5277102668722228,0.5580558526800764,0.49860212913789786,0.5078664183098808,0.4908090571691918,0.48665444458482826,0.477414446183996,0.4586618719004959,0.4582723891301686,0.4367720786487423,0.44836799356700313,0.36976842977388047,0.3798940480263255,0.3947436693888269,0.3550222610382783,0.31888445130425763,0.3536531245130818,0.2907258770859242,0.30753712154856805,0.3013219293754174,0.2956507221618234,0.2533747772344394,0.24757972883433557,0.21723094145869323,0.16825611020193332,0.19828774907747046,0.17514930485995753,0.17007782135473024,0.14045284174409126,0.13636660920472296,0.12496629230302914,0.08353766157116739,0.14986812742893602,0.12908095144709808,0.1061246459945683,0.06237370193109168,0.09839504513072668,0.061024580201389234,0.07643818244212919,0.06014471320030384,0.06259598671818546,0.08280477506068862,0.035327509948981185,0.034115079148309,0.04563024836131554,0.01432617959510532,0.06419658765925168,0.019755499811073683,-0.01987414248485881,-0.018535958825170278,0.024254144260854385,0.02707107729719675,0.025600847479682002,0.0063353133385214535,0.020872625077346624,0.009742806292046291,0.011552121876088907,0.003909253123537907,0.031840824004482585,0.008091900373884714,0.013225372657956504,0.033459170764033715,0.011904251759336392,0.054502804215723046,0.01455659941031227,-0.021230699153978985,0.013113817699222725,0.02437260360611393,-0.007479571317561087,-0.0022423771635657567,0.01951088999780841,0.028577639673899268,0.027379979268455257,-0.005742928133549706,-0.03077002978260211,0.04034744558796054,0.0275232219955732,-0.0004771212543205825,-0.0029197388945967667,0.016568545124054316,-0.0004647365743219098,0.011683947082292355,0.005014376277129436,-0.04123051731362995,0.01384166762380283,-0.005437128717905413,-0.027520766890807003,-0.0006172960732009985,-0.02168765820956904,0.005888765256611927,0.023302676691932107,-0.013209563879889256
hello,-0.03479556262375893,0.019113641269776955,0.011169152094018276,0.03192099509676003,-0.03396698821751007,0.014140632156797695,0.017036173663210884,-0.021410450358287057,0.0030756112335682106,0.0045785543150318525,-0.010515129459304922,-0.013524972148032527,0.03281660102686973,-0.020604230062214388,-0.012000736989506999,0.01928170538362389,-0.0005773808919148645,-0.0012074464632006857,-0.012147318385492671,-0.004328406881818433,-0.014814464660748917,-0.022919230409106393,0.0021874677920679687,0.002400623851178887,-0.05072932892735022,0.012642341561615984,0.007742087785544326,0.00878753490125216,0.009282646751144215,0.010081350377789951,0.009877315474251129,-0.01746196235943295,-0.01818162648553746,0.02282800027874151,0.05129981432881787,0.03127840480374871,-0.004368805647177501,0.02003679508470643,0.006602264316526435,-0.04452670624839338,-0.015565340853918287,0.049673324545501565,0.045709560229713626,0.0001589319190376387,0.021286210928170228,0.012852856611941629,0.005600316796626745,0.09073613372787004,0.04687257075347275,0.06990311123734083,0.08603489590073649,0.07784278770658724,0.11544677874375996,0.08438675666432245,0.11482752938060983,0.11181171127788193,0.16697751192618232,0.12848138812761964,0.11662417500443886,0.1422513598087819,0.17056858598367147,0.18918407338565316,0.19184274031580212,0.198698098252782,0.25952443380187434,0.23906476519933414,0.26098026721303597,0.2534286242635151,0.26394952080898815,0.3169239579244027,0.36257628621099425,0.3692110027261571,0.3602649017415663,0.38901493404090653,0.42857884152211634,0.43485152038010677,0.4634569564371546,0.482311913917799,0.4895732787216332,0.530709447711627,0.5242964224379353,0.5338474411281096,0.5800013052682658,0.6033735904777083,0.6486769672121211,0.6706136743263532,0.6527421390139705,0.6483120938831196,0.6778692314164884,0.7090343030488457,0.7010447029127713,0.7076356766174273,0.7370927796613047,0.7517620566673373,0.7751762791476163,0.7683511946331717,0.8272514899166722,0.8031123702796256,0.8006253559104121,0.7998628104209479,0.8133284884254519,0.7966027827150716,0.800061565025332,0.8022857224618005,0.7829021891368989,0.7607894688264869,0.7821801631440142,0.7433718755838693,0.7516157157255314,0.712276176780991,0.7073078027938807,0.6787625233433472,0.6822141648080189,0.6586547237394129,0.6385604634053632,0.6198981693514952,0.5995904218461209,0.5485507256219254,0.5579218597149925,0.5229117909227454,0.5121638484702062,0.47523513369371806,0.5120806183674539,0.4827917753433728,0.4150288392341693,0.4568322163028065,0.3776014684465745,0.376606649232128,0.36768887695711633,0.30577915558217755,0.3295717657218824,0.2849092418342377,0.2668316996071269,0.2443816027625361,0.19003634190840218,0.23551150970222917,0.201569429894973,0.20592219315234578,0.17631037699619195,0.1703100807603987,0.14280421947755312,0.13546696290218357,0.17216257691455716,0.10774787629565864,0.10703583844012585,0.06206953867921716,0.08072878819239658,0.11755594164380415,0.06276261250565773,0.053009834900929274,0.0689140821047374,0.04612561271485134,0.02891024821988019,0.0294252813083657,0.032795566884722384,0.037082571375565365,2.1733958826160305e-05,0.022866730237425695,0.020069567061474516,0.01256588123159039,0.0007895114388894175,0.03272031878270754,-0.0036853891041370053,0.054680118550105856,-0.0022871252613787044,0.029256444518956076,-0.0012241676352776603,-0.013911675692541387,-0.000786304499414487,-0.028954882929149203,0.005447543203759178,0.0006226939738421828,0.02943907516539785,0.04007227224861163,0.007817045967634818,0.01684597017281317,0.017534253090169944,-0.005983583984289534,-0.0348241249429924,-0.021877703768909174,-0.014333842394023683,0.024485884113567797,0.027096059387238365,0.007079846380202676,-0.030174451850969272,0.004590678628671131,-0.01998786329872783,-0.02016200999955082,0.010943766730963301,0.013756917141364549,0.012337444004201652,9.372250659280785e-05,-0.005998206678256737,0.032461979667152314,0.005864954263587522,0.007167485771949197,0.000750203062291514,-0.013333184270187568,0.0011205369636189538,0.004440732678496023,-0.007598159263221015,0.020836065526901554,-0.030822982345576885,0.022142644283931985,0.0047004887241728355,-0.0135285486986922,-0.01615975869124889,0.03240833352328304,0.011059314626771496,0.011795991080421212,0.01614372900802691,0.026292044808224314,-0.04484795347745365,-0.013100065606717158,-0.03504286682388266,-0.0405442651894739,-0.005446169499571509,-0.0025097365590176523,0.022561523717235965,0.04130127995347095,0.0031683957509165946,-0.0013064081876236135,0.03569610922255119,0.03360680782954818,0.009342216283302814,-0.025335683872274292,0.03264637018021085,-0.007010116870597997,0.00982468320755105,-0.0021276887132101177,0.0013194604085191935,0.014780308333099745,-0.022506664204052618,0.002711612340737698,0.041531635078399055,-0.013529771424333153,0.04737985756165152,0.010892172005865522,0.0525881673413062,0.0029141103630638838,-0.00028615029175670104,0.012522730292243118,-0.015117308285487192,0.05655683699538435,0.05176380067590783,0.027788931661116744,0.03346025677280224,0.03782054308602558,0.04731332632494355,0.02681379286225885,0.07025263072823053,0.05154282950563909,0.08408006025413234,0.10109786079875788,0.05966011335205906,0.059405759900950525,0.03592521017752323,0.09927651950012399,0.1065724496478198,0.1257985771164192,0.141107511749705,0.10788216570838946,0.13705150009669317,0.18772553793824057,0.178916223303715,0.1719505201771099,0.19865912848819586,0.19403343791621253,0.21279639746104154,0.23010809273926194,0.2449874470262124,0.29208443849183474,0.3039688724737861,0.29695610005055867,0.3027246738367472,0.32880521964945386,0.3257893502216405,0.33490860630919844,0.41294337335985376,0.3806447251805347,0.40944142874770395,0.4050464046350938,0.44242553227992876,0.44781028419046737,0.4481687271271826,0.4911391123768396,0.4649743395030097,0.48597625763117314,0.5455076260242825,0.5502902606358236,0.5575968448702778,0.5845440973105994,0.5661967716436958,0.5826424792618257,0.5945758776001926,0.5953465440851993,0.5913866737799888,0.6078816916232191,0.6117960765736248,0.5918766906889401,0.6023501310916921,0.5995655273964061,0.5713316003490316,0.5660837623957633,0.5483801629632254,0.6153032078607454,0.6200875000082996,0.5522509327314293,0.5444286684186085,0.558566873099136,0.5686503606134822,0.5004184501921062,0.4979335153722205,0.4721578110525084,0.495545787423888,0.4447597739949933,0.4785656415575834,0.484033019402725,0.40192770547064494,0.38818381634797405,0.38903012119353375,0.39017549610026525,0.34364445637458746,0.37323090714698964,0.32703259801516144,0.3309385227555907,0.3287560454260615,0.2843885236160771,0.2600364042094356,0.24138137421771105,0.2364078536669443,0.22420912655868105,0.2086634007024341,0.1794705968934695,0.1976823867870971,0.18013378824142262,0.18966713803951094,0.13508893061118515,0.14462383218432798,0.1203857791087639,0.11820404579800145,0.12174392700727321,0.08546297927569363,0.1048574094636107,0.0357524660186332,0.09901115095595799,0.06283078196961732,0.04558214293081457,0.06492947803041908,0.0431742076368662,0.0568680304885976,0.05134921231420169,0.059628173969591004,-0.0014569566704620215,0.026193683990918815,0.03138625850934346,0.046982527947894676,0.009011996165130345,0.020699202103720494,-0.0008097922963775789,0.04168262964004037,0.004429255087247558,0.006765414173349422,0.04722482315915945,0.022484539699262895,0.00945462610445515,0.01397404125577779,0.03299465101324713,0.012180257250200773,0.00582946066190904,0.009659415879905557,0.022629155862572133,-0.0033532448588560293,0.0009227603463619373,-0.005987953824372388,-0.001878639596597642,0.016981833754698764,-0.007224042914432035,0.004845933165855989,0.01630685137084784,-0.01134722545781871,0.017565112333491655,-0.01850147547084555,-0.02220189967180325,0.03684595000396574,-0.018385975987724214,0.03282036603821134,0.0356108122517861,-0.009420412817356897,0.003366644265202772,-0.004812128808720051,0.0006345010481349434,-0.004959157121344659,0.018866934673100917,-0.003473743914428191,0.029714019830884904,-0.026074546237062953,0.009484681817509976,0.0067058234774722315,0.0030523760670995606
hello,0.00269178559341835,-0.03115045437999232,0.006434170370057647,-0.04349585191657178,0.0012752571275075073,-0.014036538172247905,-0.012993436470943668,-0.0024021199468992087,-0.004684880853967173,0.004083004409035199,-0.02373919543707642,-0.0009861087378331072,-0.015458429933506932,0.015597481443510563,0.015941414602775827,-0.006962543693835451,0.03598877279294404,-0.021493760212691684,-0.013471875110496688,-0.00559067191695869,0.00918531355107148,0.0006442046322153608,0.002908017018479362,-0.014741824501514865,0.020620985325052115,-0.03633195293601628,0.012065557733097839,0.034161339400176204,-0.009575962732500085,-0.01620303233673311,0.025989522407685723,-0.012648121200099019,0.01303046851085369,0.014862586125436046,-0.00044082895416261425,0.011737254297250867,0.04895535135761845,0.03184747370881173,0.030862496308749397,0.047955193538934654,0.05792880925504525,-0.00782588091366098,-0.019761505036868632,0.05048767169172652,0.04230343985920042,0.04698274489980852,0.020224588724595195,0.03851259953752838,0.04004252753737998,0.05110044299102425,0.07926984031514928,0.08739207580714407,0.10141347564236253,0.06296193056830188,0.06364175536472635,0.11589666481105858,0.10583610389110906,0.15054908291757124,0.1302404796963917,0.14070332592745977,0.2066242259094666,0.18744249464560403,0.1938629145378463,0.19417700775739136,0.24805189164106695,0.2819873926863843,0.25520995449977585,0.3039778221269138,0.3081864182580166,0.31384350892938706,0.2877109057030814,0.34922649346666557,0.36722741848543905,0.4149172073365252,0.4166419112964564,0.4549125192884651,0.4621381167804492,0.44796387968791757,0.4595976601163323,0.5473838102562525,0.5466433559685597,0.5315982031253704,0.6081905429770569,0.6006994306717492,0.6552796550960951,0.626745443142413,0.6920924038953302,0.6728771359898442,0.7100364177712652,0.726397202367636,0.7365114634730695,0.7606204750518469,0.7562202141549669,0.7559338211315869,0.7844471138075616,0.7575769815361669,0.8137050832498981,0.7462812871895609,0.8029949650433132,0.7747764559779963,0.8074361598551468,0.8225748236503219,0.7382856972229914,0.806127808937623,0.8168780285983864,0.7871566903347225,0.7741053720401021,0.7607536801070378,0.7463215396821483,0.713852194163627,0.7091832266487443,0.6853479960021469,0.7078909287616407,0.6843750563793372,0.6210346546960315,0.5970853045301292,0.5983196896128656,0.571462400044519,0.5747031027744858,0.5618325816801684,0.5391071610398457,0.5244412821889703,0.4676320625947073,0.4580522458955002,0.4015705560815205,0.439432818581193,0.3946492162215355,0.3796871164974886,0.33000095766276133,0.34218645792032665,0.29759025000277134,0.25455796828697475,0.3016966883431045,0.2594007832158689,0.23755532436534757,0.2332060664977322,0.23012984641024456,0.2021475995750827,0.1695378099242013,0.20183514966387678,0.12908834230812485,0.13474136577767032,0.1269737476871524,0.10152469212692021,0.10205212194425478,0.138596768426587,0.07567560277060967,0.07650207413938069,0.07020438189235141,0.06784322414940357,0.13141765889294232,0.05283846772350012,0.07349951320793309,0.04538695838540688,0.03574891100498015,0.012001027285922044,0.026235314393515542,0.02179043861347364,-0.025529411351438498,0.0521680198121806,0.0209570186181393,0.012716043456013341,0.039371534284757106,-0.02221435178623133,0.006260571937134151,0.00677645371949682,-0.029509725548424806,0.0029881205493472165,-0.007243504057101993,0.00042304989660494306,0.039802752337084316,-0.0015478998185748088,0.0009468899067792236,-0.05210171219797416,-0.009343208022311972,0.022740998630156363,-0.01885547572483927,0.012816107495742331,-0.0261858726193712,0.027714565610657924,0.02772731690843004,0.006236386174879384,0.04059727374780267,-0.009596231104651961,-0.01353402651231672,-0.015733448495456857,0.0003645145946829815,0.00373335269209783,0.015608940177022237,-0.01723525754512828,-5.4022302756985286e-05,0.004900159883343447,-0.027874430666562377,0.005876134483958709,0.008085854709261353,-0.001931162074446418,0.02377822366602381,0.0033681511140233674,0.02299821043655767,-0.005091565769670385,-0.005578737664898845,-0.014926753818256209,0.010538184115070114,-0.018653692981224507,-0.008815202010104025,-0.03831260953373027,-0.002000467156705995,-0.005599709289890803,-0.028242283812161272,0.02298434579551309,-0.004342185925220081,-0.018543925627441445,0.021246276756672428,0.007682949672719869,0.024269948700167725,-0.004875133517783961,-0.038444676775292196,0.006284547374556975,0.021119704162885836,0.010214935986137432,-0.00715446658936475,0.023867552533820804,0.010738886712149811,0.0403237275919624,-0.001783658482876373,0.026166318429848526,-0.004313781976289901,0.013991406330443589,-0.012579870506583636,0.019652964031032588,-0.005496083692828499,-0.019534331583674576,0.02186764503354431,-0.0014399610445188808,-0.03685601963625934,0.025988792349641632,-0.00023900991122495323,0.023495237816895168,0.014720901032949487,-0.002780956394858477,0.015897124242864137,0.0277102949632115,0.029188282787400776,0.01408322892220976,0.0392719361949127,0.025375339817623487,0.06299814653011437,0.03168674485954658,0.02386743156362505,0.07214705804623886,0.038043776484949346,0.05424852086829519,0.029262699553298445,0.07494051715924109,0.09093299493309412,0.0919885245575271,0.07098903192821554,0.050035664335039184,0.11040806235450094,0.10864373402536243,0.11654202888901602,0.15362125871627885,0.12633559014446694,0.17737709969771873,0.1380311210907653,0.18374457473114683,0.19386797480388004,0.24365533718507248,0.26130299001666235,0.20047208854893245,0.2629342196803016,0.2675262496191343,0.2989961848677888,0.27636836163089423,0.3013438055003479,0.3134699127797883,0.32228405725832365,0.35727841912321445,0.35471393655840344,0.37596320114361936,0.42577352807083435,0.4287604633053932,0.4610043435685007,0.42254241538203113,0.4545191829700267,0.4974676840526059,0.4585853764752676,0.48808283973263134,0.5087289933184097,0.5303508641773841,0.5493310653614291,0.6042306470245342,0.5773098061831745,0.5559153146404064,0.5861774560161006,0.5922821211737592,0.6189817651858925,0.6212916544475365,0.6158818781089977,0.5722219905788609,0.5922272549813363,0.5972513643367244,0.6051033220682439,0.6107738217049733,0.5470136676174728,0.5453056806521832,0.5806070553325771,0.5831073307085678,0.5848582627422884,0.5427006959922275,0.541440624697701,0.5022347059915045,0.5248743742903083,0.5330318480295367,0.4607312942732146,0.4640697192085419,0.4455072971992153,0.42004928733227215,0.44775373784341366,0.408027707449222,0.3993366810180759,0.36512637563761535,0.35848023639561866,0.3149882926297148,0.3390081731066271,0.29669425818235917,0.29799037906954906,0.28624569681930623,0.27161603479106555,0.2592853774988515,0.23603665498790954,0.2457035151470031,0.2344123188213791,0.20066139247719428,0.1552391569157506,0.16665256065033512,0.13891847472169788,0.1477996513711062,0.13503604645794912,0.14892627121256458,0.12361466989169861,0.1207222820198294,0.12045705699296083,0.11365916532975523,0.06065548040695276,0.08226051680500887,0.10780108838246466,0.05083365024721821,0.024966370971888377,0.051527744178996804,0.031418028087900306,0.03278845747538354,0.012479961435080757,0.039509701962221276,0.06805501335786074,0.07108659660560344,0.049020892630820476,-0.006401248018152568,-0.0018675631279677883,0.014692875058464165,0.03507442212721044,0.026365830773224515,-0.011468713208129058,0.01701922013939773,0.047361960996670886,0.041079702275600025,-0.004395828349090897,-0.00850144637666236,0.0026760287260851547,0.005587546906662572,0.007358858688205176,0.0013891818149485398,-0.03084617233827883,0.00020391507153993092,-0.014578140188350464,0.04900391098167493,-0.017586619757384334,0.011981730353650268,0.015170418229293702,-0.011525596616038062,0.010934961337931993,0.03504713883532044,-0.00532839377887494,-0.005855108708186035,-0.00033620971746474876,-0.03071779434969021,0.02975122784341988,0.019543810711039725,0.009004929284437403,-0.006677694777818427,0.0332726734284455,0.00935483321522689,-0.007021126330981365,0.006141605441064983,0.018976534123835893,0.006745703608297159,-0.004566975428428172,0.004353395147411451,0.024715437089681744,0.01539617063610948
hello,-0.0033136198004654165,0.00038002162358954364,0.009473603790657524,-0.00747307260058838,0.00375773935854055,-0.05392558271543081,0.002636012847961557,0.017602041272095154,0.03352156400831297,0.027526722768122406,0.0011789047607171927,0.007368025528141456,-0.012460097804585317,0.009526121780132343,-0.01026536044732204,-0.014938557851384874,-0.026089525114987935,-0.029343023999472605,0.0020621730197275404,0.024735138506191145,0.044900512243832305,0.030847250565142387,0.023978110733424433,0.006489494758401151,-0.009201515509153678,0.02163487666328736,-0.015489211787674729,0.022819302292036252,0.04489765388269714,-0.015799632226293558,0.01019972845039593,0.018479902715814206,0.007438742444413285,-0.011345206731404699,-0.025596403932311176,0.007802926368750919,0.04330575311497608,0.005176962518020734,0.01973427024857269,0.04106010392256394,0.010805910240285757,0.03451010387657258,0.037433158620132856,0.04378004303844199,0.041506555230867014,0.06998156104647371,0.047162623515623704,0.04560430936778556,0.07402748857513088,0.047699916331311404,0.07330164956066093,0.055649924212204896,0.058199149185758414,0.08209351629098105,0.10157281728311356,0.11505463603898439,0.13465552830128244,0.09018448089091329,0.12235417614978689,0.18182573875671793,0.20105131321626218,0.1727163165059841,0.18452825713608617,0.21680436462095795,0.22658539903542357,0.25406642764016085,0.20319021853718902,0.2519351764146917,0.321017095234572,0.29027837938833234,0.34255837941427,0.339894926180995,0.36822333316937844,0.36695127881083905,0.4157184693745289,0.44259013370427364,0.4427667243026851,0.4663271674880781,0.5013011849920967,0.5270257308589361,0.5392416081568573,0.5859602098940007,0.5854579996443907,0.5971085403654995,0.6336483266605879,0.636696862867679,0.63815772144392,0.675182216923271,0.706026400907864,0.7093563804452521,0.7522479089804719,0.7465459177116907,0.757977619488174,0.7625103621092952,0.7216877272695991,0.7755757760069646,0.7814409484899925,0.7556068650822438,0.7624928731090093,0.8007266050033233,0.7819762948290012,0.7920481323317953,0.8020169565739624,0.806414190034829,0.7552096590197472,0.7729205084838933,0.7597808685248236,0.7901776575749709,0.7418237600504701,0.7406239641922444,0.7325437652589177,0.6909586996244174,0.6996497456482542,0.6969014249097314,0.6508414592077646,0.612237632079919,0.6235573719119972,0.5601313200159986,0.5541239157080158,0.5746364453799055,0.4636514971721683,0.5094687365769428,0.4886312712750137,0.4278723288008565,0.4754798776656856,0.3725998983703545,0.40676923774091295,0.3648397731811689,0.3451431156006702,0.3361773074141517,0.3347247189586712,0.30931924714840603,0.25035766128088766,0.2523341268234023,0.272795827550439,0.2008378454517711,0.2038411228138058,0.2191664879746672,0.13772246830218282,0.14150596772161314,0.15656896017606553,0.14204731508788354,0.15808620495353745,0.12090801359787112,0.08986846799137284,0.11379981702811809,0.11453288812096557,0.07607295868720064,0.10634240433479614,0.057363412153128374,0.07400124626092972,0.04947252758581357,0.061960027398758624,0.0695648587892394,0.05571268129047753,0.05428946969644424,0.04363726608880207,0.06931182507437625,0.027668651514441367,0.026095005011854123,0.008862948988209727,0.055385483446852596,-0.01024709534181889,0.03083480532937745,0.001551945895555235,-0.019020366046708048,0.013138012965912427,0.011208048334235601,0.016131068320831297,0.042904622026675825,-0.012234132756372522,0.045173908281498316,0.028631180404563458,0.0175960930172226,0.00870179492702812,-0.00564027029367195,0.006070204831750388,-0.03197583785298104,0.01274374601536472,0.05115420730360466,-0.01896751763630551,-0.02038136414319302,-0.0010299057693327544,0.01291882312130177,-0.030236430179852877,0.031073120760820548,0.0068036713472459836,-0.022738857882305754,0.0006797974077251545,-0.0017624695681141811,0.01731666285686499,-0.02515970241285307,-0.02833562693817614,-0.02374954988935865,-0.0014770794531322416,-0.016416601889709996,0.0006210872952683679,0.0383373200806113,-0.03328565594749829,0.03299326837249726,0.015269494476195928,0.02749802107379219,0.01333820470609464,0.012532547433413645,-0.05075148481479378,-0.01977934000252978,0.0032816098519687343,-0.02093109148623387,0.004797843635853509,0.01163649777596766,-0.03162873753666024,0.01997096249846033,-0.01920463200797362,-0.011863699837464986,-0.016042733320360176,0.0009959754757649542,0.027374053354381638,0.012576192926048186,0.008452582440793412,0.004898096310683756,-0.022740638522906306,-0.011921876023800362,0.01259816983292074,-0.008871051100072002,-0.01389783041590955,0.010283750184313354,-0.020814029395304533,-0.02288765319778757,-0.03201674733876344,0.04435887971988401,0.01785026346591837,0.021500112077011267,-0.02528793154270391,0.002095085090395591,0.04531519284698729,0.012324386498757089,-0.019972678964985155,-0.006090645419613572,0.028796462395551795,0.003921768466398946,0.024409718705304714,0.03473054880964702,0.007365561145687618,0.030114246704832058,0.0540954979739717,0.060895650818319644,0.009621384969125932,0.02789815168263486,0.044387710674552695,0.02535168350179096,0.033724087724649486,0.06372231654766053,0.029106500968260722,0.08268658197240131,0.07316107741063567,0.11771775652000813,0.05635805933613387,0.10263710200790126,0.11005926084481642,0.08123912225990852,0.1323419384768392,0.10786084539692788,0.12699706973005365,0.14930101055937692,0.1775820828897685,0.18727781135310367,0.20787174137925732,0.24236336801955127,0.24401763443706542,0.2545397115102928,0.23245195451861567,0.2559182742923023,0.2875104438437999,0.28791227993235946,0.2822182754254156,0.3150503318596444,0.35118165012570424,0.3948278572927119,0.38565830738278417,0.42492937153433114,0.3732298429672386,0.3974702193107225,0.4863859570256851,0.47146722204729485,0.4580688087075684,0.4855791448711451,0.4927575084661242,0.5278996066508641,0.5087379630252344,0.5552380983287428,0.5223058770736126,0.5451856299180755,0.5347464282643505,0.5729348025553502,0.5983804353409862,0.5947226660550554,0.5615444825511512,0.6016473148155934,0.5619271303178348,0.6132829482710286,0.5827132387119679,0.6265784832672983,0.6194506533620691,0.6001591041191634,0.5709048520254,0.5796196062875261,0.5928585447323546,0.580322514787978,0.5631519604586138,0.5226597465024423,0.5595394689849784,0.583690236040204,0.5027440231865262,0.4667301374117442,0.48411364842662286,0.4839510070805787,0.4445492859145464,0.4274579322613994,0.4101120455651082,0.43307810475675107,0.4083828890072736,0.3514695194645173,0.3561471960229195,0.2950732245293204,0.31912266141090095,0.30908933786273685,0.3067968484259846,0.26860376881272174,0.2956754877909886,0.24644409039399948,0.22261610885062322,0.1957021640443376,0.22548844890101705,0.16717015883614886,0.18712072051839967,0.22273229534081765,0.13756062552618256,0.14253635629469283,0.11329008344295566,0.13185973001339837,0.09823069484600244,0.09104795013571876,0.06812611542421552,0.07994258176326259,0.07585146378131546,0.03313966686373564,0.09225793888813454,0.060133555823971334,0.05988826918755994,0.04420699745909546,0.06124121883771131,0.061994453236329364,0.051565470824853916,0.018880603247667063,0.027712074285742905,0.0014919298306956125,0.03856114817272256,0.02254538677431015,0.020979083979638567,0.0031089071931775254,-0.03459376357825209,0.0023657230743059816,-0.0005183389759204193,-0.01047953434110171,-0.004259558921707294,-0.04071649126881796,0.01727926994833501,0.00524982701293462,0.012399207699760998,-0.007350269334252793,-0.00254189715520843,0.02338149089254258,0.004601086088052429,0.01066965051848312,0.032627579897678775,0.01904161053651877,0.009343599331943184,0.014877715076524366,0.009860334583793075,-0.008549405351033214,-0.028331029698883813,-0.004882439006160478,-0.009961093203612268,0.019553535597919107,0.03659527221384268,-0.01033768120112321,-0.024996707886276025,-0.004975167361331235,-0.011660659991824085,0.018667952009703993,0.002240580596886456,-0.016826513390462986,0.014405757174686477,-0.031916130010149944,-0.003971168529035226,-0.007952413737461536,0.015116100713053564,-0.023439265828515275,0.00773713487304825,0.0005006328041498094
hello,0.008162953803484222,0.0008405881497926516,-0.004474129335766779,0.008038731627811463,0.0029908927544346877,0.031161906002826294,0.02092751860057351,0.029262665766555063,-0.02076897470739453,-0.03028375359528385,-0.029931497395741937,-0.02107156194142059,-0.006591952512937683,-0.0010491786112152152,-0.025985084565963202,-0.01246667824655459,0.007128159714847219,0.0012946131992366313,0.016643359924706138,0.024498976421799386,0.0032251043216189445,-0.0045871312676249954,0.014659157537000995,0.00438325106727841,0.0035880188071568194,-0.007946707161774768,-0.022187176734642253,-0.004666131841488975,0.03145462674162158,-0.009516179067522102,0.02492442565828902,0.00805583608949974,0.013149286763002118,0.0025020049095574254,0.018142159024309722,0.027842313581250194,-0.009500904716993204,0.019354573728741328,0.051085712527988436,0.047553536934246195,0.006439752707716219,0.038102347335801964,0.01384425322439644,0.04314077596528747,0.03930084798518253,0.09217018663114723,0.04228310728376452,0.088628066222914,0.05256706110320861,0.06258697969484237,0.06521854489706212,0.06323394921287341,0.09454495713664163,0.08752824321729684,0.07007026729556858,0.11157248707862112,0.14171678503502871,0.1367308135178597,0.09619358417762384,0.1512096392418647,0.1486712579269841,0.16484193778089096,0.1880343904762417,0.19760717966954572,0.21216091778254942,0.24074606777659854,0.279286133795442,0.28703666721214277,0.3033520841530738,0.3313737175526038,0.3312500208767944,0.3864760128254451,0.3588085374389177,0.3945260477279496,0.4251127160270726,0.42421036775817506,0.4842644276419847,0.5144862984614992,0.5102625755734637,0.555177839382423,0.5698609239469311,0.5310041748734415,0.59180309755935,0.6348151603501159,0.6484250424034326,0.643984878869394,0.6656254128287284,0.696345779606848,0.69787380097411,0.6860565007860521,0.6932442227682051,0.7574091970864916,0.7677322417869537,0.7567935319892662,0.7900374541143499,0.767355146932208,0.7775996343965106,0.7858309363466411,0.8035128533661546,0.764490840425422,0.8128176382359334,0.79464744306825,0.774027860360025,0.8172037887868628,0.7566463000454184,0.8151267263151414,0.7927629852545227,0.7683551576050294,0.6894044026845031,0.7160689284846292,0.7127124848193166,0.6793082232872595,0.6964542343420985,0.6627987083356566,0.614968361575785,0.6297937947272858,0.5777249061559296,0.6278476522384047,0.5911008595079276,0.5503696088873138,0.5356543282529139,0.5173911278394715,0.4836452914752087,0.46710595067464455,0.44673087006158835,0.4135955294402712,0.3908485239273066,0.3647061950181111,0.3381945065357629,0.3414512279407584,0.29191890544855204,0.25669958411496724,0.283261518924746,0.22415567462623237,0.23525319549134624,0.23614575298137447,0.1811483741090844,0.15684424569418393,0.12036000724720439,0.17187732261838395,0.15878790018345237,0.10505534276841788,0.11602726929457788,0.13924605041228966,0.10941975692995703,0.11307175098498948,0.06033319501276867,0.09884792504528539,0.11043161818055122,0.04353062077999087,0.05691339785534272,0.03583665907757021,0.049006325673442236,0.04189654082419174,-0.0027384946572368424,0.02296348590814077,0.08211228998828593,0.03699408905526829,0.021063190111488057,0.04073550149852683,0.030214940817023417,0.014480530109760855,0.024206330819529685,0.04852207932729201,-0.014908828751870537,-0.0023133250611547043,0.03471931025562237,0.031854555410547145,0.005408215278147634,0.007960978399448948,0.00806141821173935,0.010785931887992671,0.010178946695136932,-0.0007262168334040186,-0.013947618132327142,-0.011683916958704597,0.025495993844579352,0.0010407174755827967,0.016377060613879967,-0.03429924011867135,0.01343696784942128,0.023932720225671333,0.043196350650711,-0.022459029799692467,0.0006759904343176279,0.00758421540014496,-0.021801032496852103,-0.020000862716136093,-0.004924209185690664,0.003611548603824685,-0.0025308707395081324,-0.0016323562964148588,-0.0158064229462168,-0.015376134503709631,0.006349711141021345,0.03543228264906797,0.030709211122570735,0.0020152517595267237,-0.0039376018230129935,-0.009137134746488765,-0.021756030152551658,-0.011803902221255377,0.005341662308012918,0.021836556449287454,0.0344960231153114,-0.0051398223606969155,-0.025597374023674964,-0.022799053279134868,0.000746198443189956,0.028657331734542376,0.021914520128486662,-0.007728602772935498,-0.03937223149056395,-0.0131427699509443,0.013176423944857088,-1.4042847057906265e-05,-0.01595837493112557,-0.05423882024579888,0.018236409313892046,0.01117637864068912,-0.016788308879496082,0.02470880021986993,-0.004129153173670343,0.017497433087131132,-0.015251622579082979,0.0007932697459631332,-0.006067877788632146,0.010941306800370304,0.009112926391597713,0.0088873437520106,0.017728501991277436,0.004928719644108284,0.02317743266705318,0.012873593179154185,-0.02435700622448811,-0.027480834035914968,0.02226881568353179,0.025992648911288267,0.01069111938601505,-0.005263679755095875,0.053387663601876856,0.06838514691635325,0.014123785226621614,0.0925334262247362,0.035197355736846674,0.053162451102216686,0.02977419045317297,0.01817730233620286,0.0015572662669424628,0.0582496228355835,0.07941241900440446,0.08272628472181903,0.05413134275990991,0.08108552035512756,0.05194539202523344,0.06330287727868193,0.09071936062336969,0.07824213620698278,0.12058766973510002,0.09617031550432159,0.13428723898978373,0.12976703561627126,0.13017425910362113,0.16762742171916617,0.16876777173317908,0.2071226224907238,0.18245625271893035,0.17852405709765107,0.19493767097153117,0.2011391073213286,0.2605497238070715,0.3067079993888072,0.27932685854639056,0.33963239787453525,0.31117575241345213,0.31712892035462875,0.3485971328616275,0.40773726572531693,0.3546190428771274,0.40313215456170526,0.45595246714764204,0.4267657599168687,0.4540964536155155,0.4469449610690147,0.4730363128495085,0.44916432175064713,0.49294623569067625,0.49979702841878015,0.5156610841651693,0.5262519262166925,0.5475820426596059,0.5402967139223993,0.5652639173631914,0.5420070575268295,0.5870253183884093,0.5656544415959226,0.6262816253707941,0.5892261374684032,0.5937146823926458,0.6173223404560341,0.6083174241562757,0.6202408473632594,0.6162932655120866,0.558882403389416,0.6003855777470659,0.585669307519513,0.5553516204730055,0.5211751465603216,0.5520524962636397,0.5383912625377116,0.5417286751979737,0.5420679560898157,0.4855435830760249,0.5237187166777619,0.47522164618884627,0.4893067071641382,0.46323942399654927,0.43171007137563244,0.4293393838240584,0.40684840266721956,0.3396995248266824,0.36026256561970366,0.3526877486170604,0.36927892267260454,0.30430242702122545,0.3172896732356673,0.30122712372453797,0.29186143819050475,0.2583632641649577,0.27411067014082957,0.26799344893482224,0.21677149225506512,0.22537360745957594,0.20023673771405753,0.19042186870623243,0.16964913880166446,0.15688755375436142,0.14178062034047642,0.12373656830262311,0.11837705031025172,0.14226471860145384,0.08891457426320881,0.06893601793737576,0.06206667210903993,0.049961313726806074,0.058510886046956256,0.03294993946454196,0.06157138894378711,0.0361371686211758,0.0403786011991665,0.03952133763610062,0.06725856385581899,0.041401011162980186,0.06751907928488796,0.02311339348429884,0.0336023973668242,0.030372739594552188,0.04080394317693516,0.01772876724036049,0.009005040844194095,0.040766367812745875,-0.01059713764664939,0.012550258459081063,0.011063210717793402,-0.009354388977813296,0.05587340167844579,0.001867593010374628,0.016860619058174316,0.02137513691017828,0.034712111089217616,0.023195403393664597,0.0031554223050722415,-0.005791629443973618,-0.03401100177237731,0.005715994150745236,-0.01855910169287547,-0.05409277004374123,-0.00038177213552798364,0.013529784781372468,-0.0003902124458543164,0.005594384874379387,-0.006778045479698777,-0.005842887350208454,0.0008879266022665929,0.0047524344975121615,-0.01647981752387557,0.016198452094628224,0.01735701017596537,-0.012247270391634696,-0.0030671122050262402,0.03855392603739195,-0.01079893747807489,0.019401699773892233,-0.03069586730446985,0.01030394570496156,-0.01837873320128021,0.025971381019331566,0.01634298190920253,-0.009824271904071712,-0.009667545730000487
hello,0.027466840593077576,-0.03425792768066596,-0.00017120873042266637,0.0066170873187884815,-0.04918470010161009,0.017220529061811412,0.04136875285771795,-0.0038753353921104523,0.018028857522506252,0.008133826729870572,-0.013376802803111877,-0.019415774947509817,0.02198879510931476,0.005708905448538756,0.02888736710587101,0.042816912980791266,0.04125136419908181,-0.0008837209733487564,0.0064988139028583245,0.019929010271235476,-0.013253813290094153,0.0071641253659332485,-0.023535284651953158,0.014662093896612551,-0.0030307115162183113,-0.02536501777931459,0.003122960203023929,-0.010200233917129167,0.006059025461427917,-0.013111596329835728,0.03486409875752285,0.010229559045118299,0.0035551807995215295,0.027995168372672727,0.03370221671986845,-0.0311409848785485,0.04574575209881114,0.00405269369106045,0.035237854942545985,-0.003748407954701525,0.01810036326538541,0.03864316307288094,0.022679998275405306,0.0001599302420431728,0.041189486939101204,0.04182672948291322,0.043881649566023306,0.02888225809919194,0.02335090056601067,0.08051431219721543,0.10544189172279775,0.07491842460759493,0.058170163171288154,0.09317181672847197,0.08857392309342871,0.09945968848668922,0.13577475701025826,0.11990528925311841,0.1594394455644627,0.11854335997282008,0.18302658790935084,0.19027814295009357,0.22387372099644423,0.19688725812089347,0.2067707806594585,0.25507493992466057,0.2670237272684229,0.2776517475880699,0.28801519879166637,0.3232350671156471,0.35308414753438777,0.3535558604060451,0.36916543674947483,0.3998361540266309,0.42549898064900915,0.4472061660247537,0.49067206943548647,0.4585869265772181,0.5186200361618072,0.503226851944299,0.5138988849478834,0.5677537909388563,0.598015052085831,0.6044207427935626,0.6497708643565827,0.6283614290357907,0.6819092164470587,0.6860799768690866,0.7035489917468425,0.7138038856245869,0.7533109152220476,0.7462478118745886,0.7877007980446158,0.7641839334527589,0.7838222114515319,0.8083306509393479,0.8094701925355157,0.8157763007292369,0.8083281316040383,0.8005834192698108,0.808240188708466,0.7833010895200928,0.7739988347350522,0.807760549291667,0.7969062554246245,0.7671255242586573,0.7751176132733872,0.7453987262597469,0.7127580150389202,0.7269329522855634,0.7252723702303254,0.6889296724518599,0.6820161530916921,0.6553515093339016,0.6457815702896145,0.6191346424367044,0.6157437257256508,0.5784826811579851,0.5790309208479648,0.5610572783522189,0.5130677563736606,0.4856931486406171,0.47206541157213244,0.4428400986924654,0.43440030775844535,0.3807137035370316,0.3786263567211321,0.37347571277743635,0.37582214232468636,0.3317821773513588,0.3542258478841093,0.28407354687347736,0.2798158105298907,0.28179075044678537,0.2295526681013993,0.2347095796415324,0.22351550752861557,0.21796862112686616,0.17095596463369345,0.1716805187515929,0.18158978106801543,0.12444031133039948,0.10967174977200687,0.13530307087140087,0.13061588589611667,0.07488822302631527,0.0857256106885465,0.08457878924675202,0.06553531838369563,0.07910213425954718,0.07780674013946123,0.04957384196869227,0.06996669074271973,0.08821704527772867,0.049039595141855824,0.016506211434949392,0.03869666627919141,0.036858911592082266,0.03253039699293941,0.0251330394570259,0.02434197420240209,0.0028211381601229314,0.017357301401247898,0.017655847504562252,0.00746801432136449,-0.01881643730544417,-0.007160006858976128,-0.008740859579576678,-0.009371398621651638,-0.009241424082850606,0.02019932133163955,-0.001888324146600004,-0.01678916318574368,-0.00808889144687706,0.027277382976168038,0.005606575877858502,0.003890185428436068,-0.038047321469619894,0.012910244955359907,-0.020113360476512843,0.022070325198810387,-0.005505948622036894,-0.003315493187234099,-0.040922068164365,0.017941113331761165,-0.011473437840296452,-0.0032703855136934387,-0.02631178897639211,0.010883211480716143,-0.01987370798515252,-0.003923941505181409,-0.003062741158099344,0.0075335519940393616,0.002098461452360025,0.0011250785758305634,0.012398136835692315,-0.05667653690074428,-0.012929398882034858,-0.006643243611878148,-0.01728389489103493,0.0012010670804963868,-0.005544363865820565,0.013112235756038215,-0.03285639863711371,-0.019560798065574075,-0.023004829344684268,0.0178602210991362,0.004846249123119857,-0.0020756228176468513,-0.0019220755067335233,0.012500205197936608,-0.019523904560256166,0.020551278724507804,-0.0037023758848464803,-0.015546955254121426,0.008988886744048536,-0.030009417484583856,0.0487415115717481,-0.028205660890430227,-0.0013750646742693023,0.0265722785180088,0.006047347549084774,0.0061595742570448924,0.006687936583222397,-0.0005057658730031776,-0.010231684010188691,0.004889811975649768,-0.0019198911505114683,0.041377259253487224,0.016162180502062525,0.005711172572197926,0.0402278220682935,0.01450604838027177,-0.013492648373239036,0.008546153604320065,-0.00494355509722863,0.012701751557514764,0.03212589347206127,0.0210056485760452,0.007170408321629896,0.009125805908626897,0.02045490575378042,0.043643517699922585,0.019359996639013482,0.008407284046271935,0.046820207622741125,0.05429210192134844,0.05227812500860947,0.026707828041097885,0.04049283735876413,0.010882523227236277,0.0206332519483039,0.04248815502724483,0.04111287107796091,0.07411239204844253,0.04081265104242128,0.09495239780274259,0.08396306566051992,0.10294122742276086,0.11520676095038172,0.1696834534667441,0.12373930354523191,0.15568202311545098,0.12972124119628392,0.16683044234835678,0.19176726508233663,0.19423082349679857,0.17894862526833877,0.21471389387033918,0.2240958855909876,0.26072491741494774,0.27202436308695227,0.2560494906139451,0.26736654204886084,0.3296999828387117,0.344992585257799,0.33665824927934695,0.37890973279926576,0.3321290443055824,0.396797969469488,0.40685981271076355,0.42944578658079074,0.4338881692130236,0.44892058405378016,0.44914882837731257,0.49937665240720663,0.4925635197451056,0.5182048842020209,0.5321478403185722,0.512349435201056,0.5468647636641566,0.5375176599652788,0.5559882062787833,0.5869321447718868,0.5773052517393479,0.5841059326678855,0.5942497073141827,0.5970912076788399,0.5961263684476477,0.621185703557949,0.5716067568363309,0.5937197619909559,0.5614324547673307,0.5574006423363517,0.5827751981830506,0.5706398476059025,0.5447105198764262,0.5529955431008053,0.5591353865588486,0.5527278766692383,0.5407460532567891,0.5278779110170365,0.5209520212621019,0.4859019622118209,0.4930523600223131,0.471768291153806,0.45281885238470976,0.4779491032384296,0.43191409166353184,0.3886064526221833,0.3743692961948696,0.33654625429866836,0.3826957468658867,0.3156973320445491,0.3451245369110388,0.3149615794891459,0.27131948186943045,0.3157588868086693,0.22814086333733113,0.26287749493691753,0.22589744504611356,0.26279349709647043,0.24452718368906728,0.21469589772525788,0.20563357927126416,0.17388784498303617,0.18165161535227925,0.1391548024106828,0.12489943360006894,0.11573186852098129,0.12833149128904206,0.09270931554469287,0.08274799651112526,0.08798235461269197,0.0667575110943285,0.07643162034387761,0.08412971419498493,0.04255301736083247,0.06393830194655337,0.054462772758318234,0.05634877540065641,0.030385690828710156,0.03199056016184074,0.052384922580148964,0.02762965657493448,0.04284962126437787,0.02669064104012354,0.018367295049106325,0.01999742011561946,-0.004542439978242014,0.038268167400201406,0.006155985319499102,0.003372292525064484,0.038112465501472466,-0.004646538416357237,-0.0020521203200206117,-0.005507289612728456,0.0073102955289670235,-0.012397450217807044,-0.003348473556554734,-0.004350123526964619,-0.01019154151130977,-0.028661781437135315,0.010136083310407617,0.0324178505358005,-0.006553960439823519,-0.007292430583884456,0.013934955396282018,-0.026277842389968654,-0.0026053425477665726,-0.006655254334924782,-0.018667672050267217,0.0048531465632692325,-0.033368435796783336,-0.0485802672704168,0.004683568402942715,-0.05571320503644944,0.019622283141941192,0.010953993549914488,-0.03078260532778038,0.012211778655793485,0.011615546503939818,-0.0022889689226337404,0.013913147122997373,0.005896706601978385,0.00238913332911481,0.02427831124812931,0.031811891128804705,0.008007855942533641,0.0018851522309664608
hello,0.046127907239193626,-0.013954401020856008,-0.007434196370487624,-0.005082946435993175,-0.004346503830162683,0.01858801861565902,-0.00445509423102034,-0.016972230748697522,0.022115248168020792,0.024317749002325896,-0.002604587313330052,0.003865547179984885,-0.002846177192613472,-0.039282436302455516,-0.040077331719929804,0.005391911405258494,0.011962334841837903,-0.04565002220373893,0.009119690011028834,-0.001502092732394254,0.034791754557725596,-0.029443827313520875,-0.0037117095100242144,0.0008929884184369452,0.001475469133506203,-0.004816651539684113,0.008426913905533129,-0.011133939286883367,0.05594946095133045,0.01778130058898692,-0.0022416853029717807,0.008795476185773698,0.006261550855234907,0.020944561778788402,0.014738269021266001,0.042620997898825876,0.017287612943434432,0.0028431479307093385,0.04782382977277905,0.05033592859795544,0.002953768476750756,0.028241280741892735,0.03757015442012592,0.001321614971904677,0.0696038766651368,0.024665500407239936,0.03195230576098539,0.07144687236509237,0.06682895283556958,0.05806020852365305,0.04124948264692455,0.0468262226799727,0.06751557584863976,0.05700490173469558,0.12182821891237391,0.09729793111938129,0.1344583878280969,0.1213132272437442,0.11282758138224835,0.17521496857143057,0.13632211098989785,0.16922071114725298,0.1594921253143094,0.17076517101817362,0.26654851343412517,0.29560596973620495,0.26469674332809123,0.24566053854755548,0.29717014183923296,0.2792913484688156,0.30896690386400255,0.36777947388254595,0.36307209950438535,0.3512391932157643,0.3956988373317231,0.4452000810979793,0.4339632149171881,0.49211908765545453,0.5168675240802373,0.509942051914481,0.5346045264522515,0.5762035226324433,0.5661092535144363,0.6198766177745575,0.6063275261397032,0.6428929265081386,0.6873543131185724,0.6906472539993115,0.6650985399225198,0.7099264999724475,0.7130064131923456,0.7371970181843284,0.767350688128726,0.7530121155303262,0.7690914855996203,0.752613973083057,0.7789458698765415,0.8174261070303099,0.8144805318958229,0.7968073039364156,0.7853815191122807,0.8658546371197968,0.7705415391002323,0.7715292869504755,0.8021508935745512,0.7474106735786569,0.7947363395990282,0.7761452047877352,0.7059454006919866,0.7150387893925153,0.682643293793625,0.703900664212031,0.6791680224440738,0.6687255112501673,0.6382027115379085,0.6291513166518111,0.5909996836392593,0.5995633890488551,0.5359670105547255,0.5598917819146242,0.5262218867942924,0.5070052516036727,0.4510784921958034,0.47037195878862936,0.4306965903055448,0.40586154768208055,0.38339375930003367,0.37319739485737763,0.3694163332608759,0.33972281251142017,0.3153264419956687,0.2798122032087003,0.30265742054309025,0.24796786520709344,0.24179563519649744,0.260665553101095,0.21578193759642228,0.1982268034213442,0.17036403409679524,0.13219616067078765,0.1613722042114054,0.1580133505446782,0.12365498040736482,0.1288856888763361,0.10689356218471077,0.09713001965788211,0.09750852542685488,0.07054670225407292,0.10506918075379361,0.06331203775464296,0.07548098218453678,0.012374638994609576,0.06799799415816182,0.02814993320956929,0.043427882822889105,0.03828037349873021,0.060246092784610614,0.03536162859987122,-0.014141486294951246,0.0077370630062737235,0.04804221797316359,0.030493224771965595,0.015683598113158365,0.009523195099701877,0.011502129306513448,0.001001992341606056,-0.0017763979380960287,-0.00944326954538462,-0.00559434007084106,0.00514135712737807,0.010627952076478833,0.041443895946913806,0.04261800731688278,-0.0005268163646018663,0.002695719552626217,0.0036432070264163776,-0.006933104082330865,-0.018026514901101593,0.0024124359184696954,0.011665993449406279,-0.0005730085869247888,0.03819936794349699,-0.02032912387154045,-0.04276503914233301,-0.016561973620799395,0.04289371959436003,0.00178625160213492,-0.0006471146489813385,0.010733415620150117,-0.012770124809998387,0.0008922850004784009,0.01740580925647974,-0.01983201420354968,0.009353917906243956,-0.02106631413766383,0.01706638050594679,-0.026140328887866847,0.015294475778521251,0.01260773138441171,0.03102001962836409,-0.010090108842704025,-0.006557087768963339,0.03055185867265239,-0.037936399152169585,0.002688038885299239,0.008752807632740969,-0.0076873111917265926,0.025529121247055062,0.01029038408957591,-0.018012214263957608,0.006365441885592589,0.0030833784451969764,-0.001919852153013672,-0.023742882063579804,-0.027505639179295733,0.0025426067216930306,0.00893868309769132,-0.031335385716895085,-0.013926064493821964,0.0227892734866842,-0.004391777662973122,0.009983364148366272,-0.015487653416678153,0.0075295461132398175,0.010778020281505015,0.018928659402362547,-0.0039754960037222085,-0.004665867269873843,0.02555059141875965,-0.012223768994708097,-0.006765568441535123,0.033542602685386266,0.022013191040426622,0.009366820109419171,0.053300655083920886,-0.02317594223095766,0.0007267083888427457,0.013583134359317978,0.0037746436762580854,0.030916520528230764,-0.010894068392560095,0.044247843675230214,0.038596149815875336,0.04714585981291838,0.039341467882995425,0.043310169473162914,0.022193078924925086,0.03773033985799342,-0.003580635593635216,0.0532750550454074,0.04703024820715724,0.04313755647624691,0.05098403966082097,0.07511044514124648,0.08466176604087325,0.0659953074410619,0.0701811715107543,0.10800734222000909,0.10626969377537655,0.10797011438653889,0.1133923117149794,0.1379857231101125,0.15179454268178774,0.16287452554338458,0.16588452449483618,0.18855987566515758,0.21445200737996487,0.21019290469362925,0.20024745633981597,0.2360191911343377,0.28493282054511,0.2457193666672582,0.3074484432603055,0.31919373807149626,0.29341354983610884,0.30353884097962547,0.3392316882095551,0.378511712449484,0.3669428680685923,0.4088128471418093,0.38173211370699456,0.3951349777475023,0.43283387527426664,0.4633589120145297,0.45693427960239325,0.48536347541218955,0.4932849841296583,0.5345708796545968,0.5197345655180036,0.5466437760250356,0.5572570346601524,0.5751457709620637,0.5746811635368836,0.5647967205786281,0.6161199527409098,0.5960562104907093,0.5853338062808252,0.5843202879388214,0.5941076664358933,0.6118581919027009,0.6058964928476277,0.61094150838165,0.6315299004006012,0.5755715398114779,0.5676666241721952,0.5564601873704011,0.5926356509403558,0.5798101030711899,0.5762675943704642,0.5406285418982494,0.5025117202998785,0.5033343746028518,0.5467627693502118,0.5358208525521946,0.47536970230152537,0.5265871933748526,0.4404973757504075,0.4151392731287127,0.423310617924276,0.4282589847777753,0.3669648110411251,0.3327278083640768,0.33602074223014367,0.37330147347924364,0.3491324056595349,0.3096725729439903,0.3002466252888409,0.25881220350001777,0.26519011527486747,0.28553021539422047,0.22027058699717295,0.2179045862983953,0.1599971919036141,0.18954344775209486,0.17769263556934412,0.18281830729071055,0.14844783470441814,0.1684905990368884,0.1715116913572285,0.13454478533865247,0.11152523859136984,0.15330171796433975,0.11731348475408832,0.08516315442341914,0.07722318163096942,0.07743848801269797,0.08812206886905606,0.08779434297012882,0.056436938413377574,0.03513899564998456,0.08328432547504813,0.03858805076968272,0.028920735855704732,0.04128080655341026,0.023823151348056962,-0.0008790602983635085,0.0008188534237219582,0.029616666760166083,-0.0024315216815490523,0.03346314305750867,0.024667839607780757,-0.01291345983262399,0.020349346020353792,-0.012431245236417128,0.00218830607242149,-0.00853693453081449,0.018993734410829837,-0.01684442366127279,-0.006128951984392494,-0.0009499305164896148,-0.0028149168120094664,0.02000495680578039,-0.020957798733127985,0.011570975832043761,-0.007937222097691217,0.013233623657032841,-0.006480456568141261,0.017173028779781524,-0.019032625959605212,-0.043955491792353356,-0.02853096924472482,-0.021803179095609356,0.014217594590115307,0.013332857326780969,-0.007541413221413638,0.030000129303458953,0.03339249687649325,0.008403643368149595,0.0039466009152964235,0.003888430031578884,0.008074772283377083,-0.004554457217888445,0.012203743819285138,0.003911250139222468,0.029206416352824522,-0.01333976981716967,-0.026010192775558168,0.0014261926037997675,0.00908518239853826,-0.008390962609797804
hello,-0.031197178127537223,-0.002581633381186656,0.003280138709568837,-0.006144204603848487,0.05303686309532598,-0.04041188878968768,0.048568010907719,0.012070561790269399,0.014481276975123717,0.02263151165088922,0.00407503889939695,0.02310440439236375,-0.018151399394545308,-0.015179774691981387,0.005119364379106518,-0.05079977387218556,-6.208896927233521e-05,-0.0169341467048158,0.017059010219803196,0.002909453374628702,-0.031612418283803706,-0.03406849285321925,-0.0044787760157271655,-0.0032141072406364313,0.008922532898183058,0.028911433479205835,-0.002443027541975373,0.014148378191299556,-0.015508655211682836,0.012505761255462617,0.019925255684084712,-0.023585100691811436,0.02777541262719048,0.014960686104153614,0.010163697135533688,0.0024986528342755693,0.023843068206914328,0.04749131000509425,0.00663283158203176,0.007200816918877593,0.031272181392706155,0.02209910088662467,0.06557279312828104,0.03099128545138018,0.032372990530526995,0.04274897604108609,0.044391535917097595,0.02492192172318493,0.06395218228175537,0.02909885900147477,0.08837800529627154,0.07492943657267286,0.053526840660252234,0.08225992195070396,0.07493753881844278,0.07906938538981971,0.11627129433367447,0.1404741727375139,0.13239154498903058,0.15534831548854625,0.1719742160246883,0.16280323710647904,0.18604621173319713,0.2106829912344506,0.2454060981615784,0.26193582211971,0.2575205284251089,0.26458717041232266,0.3396125433826306,0.3026725189535913,0.31167856847764325,0.3628713450221064,0.36491080462045244,0.3761526542495117,0.39841356706610326,0.4283445485672207,0.42285737564024933,0.4806704870714134,0.5408662926572382,0.48536800827007986,0.5688407652163916,0.5350041942337466,0.6156119717372099,0.5897393776208023,0.6094455166200003,0.6555242030856221,0.6533721912294416,0.6778716327387946,0.6868359109240085,0.7320908056350671,0.7276795708277403,0.7331570675453614,0.7650356276943395,0.8017311269907186,0.8006713208012459,0.7899828197613247,0.8042605105584554,0.7863564160130466,0.7944059434643836,0.8099239496668627,0.8057983925099346,0.7993994943262687,0.7863784297164561,0.792941473065467,0.7653378215365246,0.7851481088117416,0.7452592659254457,0.7927086752262559,0.7599518734538491,0.7113052942046655,0.7175030463974211,0.713421797429724,0.689625913132857,0.6851782547531683,0.6428834053454068,0.6522458997679037,0.5934363169191201,0.5769246210421748,0.5614121231484859,0.5313430931286657,0.5165343186529092,0.48392347665671454,0.5001987430962983,0.4416068980235121,0.40743357941476305,0.38786204107933403,0.3756570956678918,0.33735567899299634,0.37286455025756166,0.34439009804915954,0.3071978324337521,0.32755351079187206,0.24922344315842346,0.2733257760771353,0.25652633955796683,0.24502217130047607,0.19775184161586268,0.1976786485086789,0.17896942567570978,0.14725711456033738,0.2051217506756972,0.1501806449852999,0.13426483995687244,0.12617218870517488,0.10632211587594945,0.1074156386969856,0.08975253236058543,0.08566994165714895,0.08430631275746596,0.061356285099672433,0.060774763263205356,0.06926668243781721,0.10402372583505398,0.009272250539449252,0.005118785263554283,0.05377823746912523,0.032405021151062266,0.005304676812819358,-0.0018469092230035677,0.038136300180818254,0.014472955328635802,0.05452884354897063,0.00222436630730553,-0.02630879098927054,0.058058393267919325,0.002520393260669919,-0.007294248500107724,0.002746483072813173,-0.03637284904495231,0.013263083456169533,-0.015962873048416672,0.008128317743496939,-0.007053649808332217,0.02060904645575997,0.00523236343655096,-0.03242884243767734,-0.001533061745135888,-0.0005816511612952763,0.0036266460598186434,-0.0204066881518453,-0.027409712052927544,-0.0033883421900395057,-0.007793337122577086,0.018069277292045598,-0.006216431828379226,0.01601856523928759,-0.00485459279768467,-0.018279929957076543,-0.00942244149266925,-0.015232352013766626,-0.010154302023349122,0.001205702676291902,0.017040550577936575,-0.0163239602106896,-0.005334579755632943,-0.03212580779483335,-0.029382224839546882,0.017934524356788755,-0.03374125915431281,-0.034462796933272234,0.004617319054107543,0.012549860867804935,-0.009141974138343612,0.023491739983477387,-0.030871106363093058,-0.027061735380844838,0.024163480428963116,-0.024066485634833507,-0.007436589988044769,-0.005256135415518116,0.028807487883143666,-0.013334705355199318,0.01711266908246184,0.01045474980671053,-0.005940357969486763,-0.008407842938219215,-0.004605257029397112,-0.005254764597654248,0.0483110775008368,0.01136656867417333,0.009712673425054278,0.02542045880649168,-0.0024287007293658774,0.03043287638791882,-0.0015637337818541147,-0.015054054613045598,0.018893024925031098,-0.0016451813164655754,-0.010976661208578754,0.008374033268065446,-0.0020435843877399454,-0.007992466005633863,0.009248044414499619,-0.009356431077667097,-0.01674386719726178,-0.02039777310834299,0.014393227931591784,0.009060580703713426,-0.006208097889876056,0.0007476998900255577,0.0031148491910158466,0.036501756321673844,0.055473058333377935,0.026223987357454244,0.028738186078568137,0.032212333102067565,0.02611295691837835,0.01499872819537807,0.01180658286034033,0.06229808361659968,0.03724863867484413,0.07447201134665048,0.05720582336359094,0.047022215396999016,0.0587548895740623,0.10032332784635264,0.0665192814056603,0.10086382789766388,0.14348351275982812,0.12135359925108183,0.11847435557146599,0.14768802441192264,0.17769113158478914,0.16038264431676413,0.17360350882701978,0.18753499368644166,0.171583241928427,0.181099881259214,0.24507611791962777,0.24014397364920714,0.2400594500102103,0.23810131848469704,0.2761007931217227,0.3316572084434393,0.31746319296496134,0.35390935952484937,0.35176352740164674,0.3745968825096399,0.3708660401984685,0.3532545122049937,0.3570654816798179,0.4250185852080146,0.4545671538988246,0.4398110077215256,0.47905192274669756,0.47104685407386443,0.522854058297909,0.5389562217511262,0.5009759942384058,0.5272387102416494,0.5319902323490419,0.5340820140504702,0.5464053056195393,0.5411602688128165,0.5749064423041084,0.5960692146010865,0.6071462062948926,0.6002878419882938,0.5654019723052777,0.5967133449211252,0.5835151030844922,0.6119760210619042,0.5950653314758336,0.5809171379958684,0.5753508015517672,0.5697518557798293,0.5725766777407706,0.5408352250213886,0.5523714247505472,0.5588175872657977,0.5094500968577891,0.5118757187745447,0.5335068098308241,0.5337389955111294,0.47625737325292267,0.4639662210325844,0.44086315997052694,0.4407765151756466,0.46068241576485514,0.36696049285345866,0.4027691868605841,0.40530192186198544,0.3774378972521316,0.36937430090961854,0.2770950267352042,0.3199760337889426,0.28083144282989614,0.2760860733408625,0.22603641257015572,0.23797133648408916,0.24506267386881514,0.2188550325387694,0.17765240322011774,0.21077068984854547,0.13899473943564267,0.15119798941019016,0.16129663765946403,0.15040790982327507,0.09805580945464389,0.10344644410881362,0.11504048591926849,0.10303336698555525,0.10968319513218111,0.10235561986190601,0.09861005272066037,0.10613202524320449,0.0579610546713138,0.06764720526371618,0.06022137980039038,0.04881097424445425,0.05116642762963223,0.02525021630359511,0.02003669756605877,0.015089280292070135,0.02853072176258007,0.031508982772689334,0.061358367732644206,-0.008827929283189064,-0.0028120293881942864,0.005052204482041571,0.04851243995487604,-0.011644815823968684,0.06708909047756974,-0.032516369590260524,0.026139723277245522,0.0038515512677695252,0.025926640529963286,0.03328358119441309,0.010019905676944711,-0.0017101249395401093,-0.008491580445013481,0.01409493366891789,0.038531160797601924,0.017373045319543735,0.003672179609079673,-0.006165696065744079,0.010433084306837277,0.022239813301826585,0.011022427054155964,-0.008663302224455752,-0.012215506890232607,0.025289095706057193,0.010646825999223616,-0.0004809285358746148,0.006167658510947089,0.023563831154103022,0.009972218902074476,0.0065483736258271745,0.013891988373498346,0.0021608196928625096,0.011854620223991353,-0.025272542138115098,0.039975225681036335,-0.020620008603501862,-0.005709065023603086,-0.008355916845388004,-0.0015420394433866907,0.02296921331931755,0.00815996499414387,-0.0009237334917536062
hello,0.013578088462915446,-0.0015388387541347334,0.021567606792931196,0.01887291385831267,-0.0035352111512830637,0.01056888916866078,0.0015846606290709582,0.011052484128342048,0.018150570617030164,-0.005565510533736943,-0.015530867214035732,0.00857349718531037,-0.005535346686237295,-0.004303865347173448,0.012075310338305853,0.01068729502233571,0.003957676686408759,0.023934609641925567,-0.0048600468695874244,0.02186487310545402,0.02719705542679383,0.02607586590706436,-0.008738990963075816,0.015393150088434752,-0.006836979993864783,-0.015380451382382582,0.030608970226771975,0.03120839903570004,-0.03225443258905881,0.026297968744431955,-0.02265337024908081,0.014515773178957758,0.015578225987675703,0.01017243449228571,-0.006397212340595381,0.02131959237246954,0.04613055709242955,0.023393022167394355,0.021632804263889756,0.01847036951348951,0.040107658668156125,0.05629137826105092,0.03600682173514475,0.03336703348641635,0.05694339609860301,0.06237932902182735,0.04240270027778579,0.06907433494041182,0.049337809100461344,0.08014837374539051,0.05042844128629469,0.09052465292299475,0.12195252023187023,0.12314074713303538,0.1359818230614206,0.10305284435075657,0.14297047734537385,0.10123489729839351,0.12053574944727946,0.15119593877518986,0.15363266749089788,0.1496027563542754,0.22309394939867605,0.1756552709674183,0.22439519119515283,0.2198031685517894,0.2766814098535627,0.2823632717317986,0.27920697595494487,0.31864886169456247,0.3424031165058623,0.3727112247888872,0.34107020718468556,0.397708530805834,0.382920729771191,0.47785020887355417,0.4591881923142489,0.49288868907121447,0.5169745221562931,0.5275009892941019,0.5198977805145927,0.5840974206430424,0.5959778278076907,0.623842983457642,0.620531487612,0.6704028197878706,0.641583127817778,0.6761864859053915,0.6618731828770348,0.7154376510253364,0.7205712245204726,0.7301183463771234,0.812144754748002,0.7687178225109803,0.7432119474536267,0.7767403643042757,0.8052815353014714,0.8085670403423624,0.7977052486274419,0.7678616039521202,0.7828978499269454,0.8239324388656304,0.7991111181575722,0.7871501066100461,0.7747793728866347,0.7935851022787287,0.7823015511248657,0.7498536632706452,0.7426005937669139,0.6968858464006114,0.7186526482097273,0.7135937607420454,0.6782874001416388,0.6790344074864839,0.6604306376334901,0.6518880273789226,0.5985004410157172,0.6241138301910645,0.531978665932747,0.5483740990305384,0.5420556339759672,0.5252123290645143,0.4727482494501004,0.460898048445578,0.44097356416393596,0.4056352070178818,0.39407335742167277,0.3919271795408769,0.3603402581466537,0.31377359205988875,0.3310791682848666,0.2772630388423718,0.2633366743544302,0.25324762869455225,0.23355951827921265,0.20429005347646606,0.18908346067797582,0.24154727909284687,0.18826324524860844,0.14647917381054143,0.15411370696276008,0.10922171427864416,0.15042599794883021,0.13237856099782985,0.13620215046630624,0.0979707781578174,0.0997738945196644,0.07643159027897785,0.0814077042776038,0.08688185554849544,0.05042519239317657,0.05844521061331062,0.039447311778318526,0.04961680980089876,0.01782927606371801,0.028414914555927838,-0.007997376930494897,0.03767939511345762,0.01805641281127135,0.017738459383979173,0.020631950148075093,0.08976303837065,0.003610121981378323,0.02665717742221811,0.0057122013066752434,-0.0037787812707858,0.015938123395216552,0.043228171481041744,-0.0008910218082659634,-0.02279329704097123,-0.012497458367700984,0.010571629211766836,0.0033942396861354274,-0.0012062954828279378,0.030154984721947442,-0.002494517756389673,0.01913305585343738,0.03184107172097638,-0.011259641782745328,-0.007158696083960951,-0.03929884001529892,-0.006421182297869463,0.038976176350204325,-0.022945646840384564,-0.01714392180499039,0.0031023791658533026,0.007579671568440743,0.030120558041470607,-0.02994210029866004,0.005417743359443685,4.6214954792634456e-05,-0.04287869569256761,0.0030787194118954966,0.0053513270357743795,0.0029816944780507518,0.008866525834030728,0.002122153765484477,0.01063248306144738,0.02204096902176987,-0.02110698561929199,-0.011083769943662575,-0.010442501771651963,-0.005539853587128455,0.0012982116804321996,0.02923642822233121,-0.022787836638292404,0.008870111982710895,0.024624797303431208,0.006837771977934124,-0.004320881242114389,-0.0065769591426593195,0.0014359343087777703,-0.019886636098363185,-0.008865916017876292,-0.00487688755370453,0.02825594431354812,0.002599841658860776,0.00891663016410562,-0.01729936665299006,-0.008092999428022558,-0.018065836668667977,0.004684278796971628,-0.009689830943176853,-0.01636105684300315,-0.00737417886678479,-0.026940047836468275,0.011072557290572133,-0.010971558684952216,0.027849760557226527,-0.007945209010812162,0.016315740584229823,0.004751172109308934,0.033628403744656775,0.005226629844864769,-0.0065858979038898365,0.009603561033178939,-0.005323734201383894,0.024587005174962682,0.03897514473810571,-0.014212283824748633,0.03212717381960417,0.036525065940365885,0.03008311320209081,0.006436740156309344,0.028316371831447834,0.053650403093524215,0.031047400177294886,0.04716415790317224,0.01986046389011579,0.05652977366543953,0.06227966471562445,0.06678806379147757,0.09981286364620016,0.06891457445631552,0.09004922237978372,0.061781533415778446,0.08117950264897085,0.10912476945227502,0.09970099515141378,0.0958397129013784,0.10862468223114675,0.14981278634440867,0.13192781960416247,0.1707889378739416,0.15902687872330432,0.16610471733894097,0.19564316661262485,0.1839415445130993,0.20733902142192992,0.21276965574977186,0.18656810565130338,0.24055184852195596,0.2778782723530449,0.3052681492976115,0.30777030147315365,0.32453356710795156,0.38903333678537205,0.36385560547909335,0.34985094093676394,0.4054850961976864,0.37926026362005455,0.44618475754798226,0.4304446313126682,0.414772291300499,0.4714021807136223,0.47389298228439575,0.4678188204156176,0.5253364710561417,0.5466795908690527,0.550047952763899,0.5483543743724324,0.521828972413819,0.5561559467496284,0.5989287087870845,0.567473073751816,0.5691183308762968,0.59518826345745,0.6036172928441141,0.5998459559482725,0.5982299789954505,0.5966498518815067,0.6183059220811556,0.5681435813968099,0.6073938566112265,0.5983296420258427,0.5918585357224603,0.5848384322842819,0.5361200547439091,0.5374723236057083,0.5473518771469286,0.5618568572606557,0.5142498648584586,0.4998900799565343,0.46525955579944467,0.4899751233514914,0.48119568624110276,0.4585477351248749,0.45941412848683494,0.43271704442955367,0.40442218497320653,0.3842680694865254,0.34266573521556387,0.3473588222848922,0.32681972301179657,0.30974805894308893,0.2532274383730905,0.29635204544443766,0.2730960724466087,0.27283117533805,0.27375631834206143,0.2504001364490856,0.2108601959799856,0.20644859452806777,0.20755821169408628,0.17013551090888496,0.14732442055471281,0.15983899910578803,0.1764519525860953,0.11129473571438095,0.1051787622107589,0.12869985207871987,0.13032681347949818,0.10900557590485821,0.07484091134361161,0.08522266496636773,0.08670375101307572,0.08047926761639539,0.09253804569929217,0.08207376150504779,0.006436323243941021,0.07001830481136723,0.05415625209035041,0.05163399726363919,0.024187735137320195,0.010634908854938657,0.009455094856128932,0.027223483684384722,0.0360577659395228,0.024921359400978844,0.03715802353845984,-0.00040333810737437636,0.025901243571381488,0.03129529392080324,0.02569001143980429,-0.009890574975618344,-0.025340948662191644,-0.0238533032213301,0.04399755545891129,0.02089520736781575,0.024209020956692716,0.04430193503892481,-0.0026037555978949004,0.025982151467602445,-0.014765417641324927,0.038443879990191526,-0.008067743429240335,0.006087012704366958,0.0038610748208894085,-0.0026855297659747696,0.01220474615001632,-0.06468565921834075,0.013560861825168385,-0.020768087177811295,-0.01325970675185398,-0.0034852263928866114,-0.012580141032363825,0.022728779641046533,0.04603332738542462,-0.01832777071592775,0.0010592277342766987,0.013175057398399151,0.01692260579257798,0.014026516642325274,0.015715930777171695,-0.01645447356863135,-0.022798532271306942,-0.020458579532561375,0.01361350032576288,-0.03143877270330612,0.03059675273621015
hello,0.014756308420762199,0.03160935767872175,0.009265684035003777,-0.04011837503815827,0.016430412454455093,-0.010728872527425678,-0.02554604498607865,0.027372625671139728,-0.037310123946792735,0.0034545221305013023,0.004524600264192916,-0.013371867930823237,-0.004501688235079738,0.006850460344778505,0.01861389715604209,0.0072680616660954125,-0.019722140384383354,0.01180645296506956,-0.003870368242237565,-0.014385483980558965,0.008529947471953157,0.00022580453736528337,0.007312355552430365,-0.003936706933354664,0.005440666064321509,0.010467206054105947,-0.012542057237031773,0.021365688376980763,0.03153312132306928,0.0028654389462356242,0.032683012231787205,0.012790714573097356,-0.030888319649317455,0.02158888302106002,-0.0036340126060072538,0.04344617087522434,0.008469384441023572,0.025504713504773104,-0.007352582509702086,0.05441175630208337,0.007419454379814644,0.03308759131971983,0.027555005535964308,-0.008144088154981695,0.0278255859154617,0.009280905081568386,0.06433285883283214,0.08369826263375267,0.09309322049297819,0.055841155311660055,0.09192307087892601,0.08699059616799046,0.08617595798654334,0.11580846828594146,0.11612359440399081,0.13991378899500717,0.1344070454008144,0.1585504610291212,0.13358845608432812,0.15055948248616216,0.17030677094992827,0.1852092631511117,0.18752404513524024,0.22006797510725384,0.22612626931894395,0.21433655078293104,0.2488568253681592,0.2704217744990386,0.30425896082048276,0.3631247721877573,0.354897972928919,0.38492958546861866,0.36308477989194626,0.3978368008127161,0.41737853167733474,0.4419673011855565,0.4833526938226221,0.4952426394876169,0.47465220500483185,0.5259587765509007,0.5066666737557862,0.5492516648704675,0.6092613350581629,0.6211301018492413,0.6245453814474493,0.6716017464321478,0.6816304437000752,0.6803108209820065,0.7072476852064589,0.7098350054847227,0.7383467395828124,0.7649010638607529,0.7386669461103638,0.7565744452752746,0.7690959673965135,0.8015312786763888,0.7768008917470053,0.79446568699904,0.762593049911903,0.7775748988719626,0.8064970513291577,0.7897044010448684,0.7668350200687841,0.8150426363045492,0.7892669379848245,0.7972316779191052,0.7547587712676204,0.7548123189158369,0.7545494430100157,0.7136554579000085,0.7411817658064147,0.7257793666703998,0.6827554737692886,0.6740307466772137,0.6531980134161279,0.6212729939725751,0.6386437471615125,0.5645743223123311,0.5977829068649838,0.5639145208520223,0.48936190339053975,0.48980884015582693,0.4658057328152368,0.4472338869035934,0.4343298344376931,0.4325937461877648,0.393654976072733,0.3548259751083681,0.3617996339090805,0.3647073295211816,0.303332118442404,0.3205337390753429,0.2594164866160614,0.25698550789116553,0.23247730416394513,0.21943586107524113,0.18541508630796655,0.20619882219355823,0.19042010084767955,0.13406210745827304,0.17443167301745405,0.12296259828064365,0.09728190311366496,0.10483930703586705,0.11875579972710468,0.10468852213292357,0.07292372272083425,0.0998340326953998,0.05926909682268408,0.009212760279199615,0.05735356103056104,0.05484417762466641,0.04920673105963265,0.022327492356659068,0.03800841095941905,0.02612495213902132,0.017596662905207457,0.04010508420641146,0.05461757002443815,0.021673194442152478,0.009020293561500185,0.039707330177520435,0.037512450607052716,0.02706114485420375,0.01809131335121654,0.0051741821905474435,0.019245701482143683,0.0193764354943924,0.008207817156209784,-0.01267540010616778,0.017973177091405453,0.01909041173596939,-0.014235330945477218,0.02536814418108837,0.05947388944636594,-0.0011551668181353988,-0.024888317539836894,-0.0037366380327650455,0.0031866710104477055,-0.006874178267001894,0.005489854378086567,0.01682299700749544,-0.02724387841330816,-0.022481074520664,-0.002343915821700463,0.015039173387930661,0.01571770462158183,-0.007952222362739065,0.0003996368409099668,-0.02084656991445746,-0.026498226334252403,0.014869120507713203,-0.02405297937302894,-0.004619815675426971,0.008140658770128352,-0.012282760138444804,-0.02691470298296861,-0.016941881203018556,-0.004768568132469747,-0.0268405242147159,0.00284432037141731,-0.019333210836976592,-0.03357392336761886,0.010374578754847543,-0.0296422429871672,-0.020904222617966598,0.021016341118110536,0.008626826577232623,-0.010477353988571149,0.025429538328574076,-0.0015592686700753742,0.03786441687627558,0.0031182245031295235,-0.019794090573281107,-0.0012517743960395885,-0.025386998257435685,0.02947484190150622,0.010734096627788629,-0.02719227954113547,0.017163065981128156,0.020713311970030877,-0.0112147748007227,-0.004213780542600066,-0.017888977217967634,-0.010430759376495333,-0.030609581788736722,-0.0032187378330425405,-0.007847679358748924,-0.01929952708785375,-0.0041635111942620205,-0.028236644329374592,-0.011717000216923725,0.008822126915495814,0.013135100937716958,0.03439283522197038,0.015098376046443564,0.024054453318705836,0.017081465419026443,0.029381265977418664,0.057529294909208994,0.012245574787862307,0.017876984308613005,0.012890158660533184,0.019565939997345266,0.01601248097320778,0.052082804334829785,0.06898288726881814,0.01792287346084363,0.026060995208089625,0.024952113952616154,0.048826206821863276,0.031056509066112858,0.10456127408204671,0.07681011416041195,0.04748195981791928,0.0543679915398177,0.08563823141450248,0.11470463137271668,0.12386571900885912,0.12550083398794395,0.133917983272693,0.14528683995724992,0.1541794409398047,0.11011298939379605,0.1580507964222834,0.18758621549311733,0.18653873684616207,0.21892229136337515,0.20485784122851697,0.2779085212055418,0.2704036901764979,0.23338953062669449,0.3117242348844738,0.30526304829141493,0.32105446861810766,0.30645870578541134,0.3493133511988422,0.3968522454623541,0.3620772583397481,0.35577246481807656,0.3842467604178901,0.40205194754791523,0.43101796092218697,0.43179675292736097,0.4716062614164796,0.47386046305089113,0.5099046849340997,0.5213076826956448,0.5235140955992769,0.5589863264023361,0.5366252082555469,0.5500258118100512,0.6041741080492906,0.5882245498589276,0.5790675306514288,0.5761882330015545,0.5794405132167274,0.5906768418911202,0.6136895777447331,0.6034116289452254,0.6100636805115706,0.583741138452365,0.5672783636186864,0.575797962880631,0.6271174982883637,0.5391381638099897,0.576758587492314,0.5762527342840126,0.5358457526091781,0.5336912348860147,0.543110531646744,0.5226687990234292,0.4780307964797064,0.4952073557388387,0.45146312908902353,0.4907635982720957,0.42978092446664296,0.4706090391485561,0.3917123135715543,0.40230242519700415,0.38810226290053945,0.38422862680729925,0.3792964517760559,0.3425747509676853,0.3437879500924619,0.30341859717004305,0.2965573971158306,0.31083033079840056,0.28040944904178283,0.2898840353680516,0.25280325801654646,0.2366388012689128,0.19363781685383585,0.16063732807943898,0.20215496740699632,0.14133103523028817,0.15740333323769085,0.17194187509787817,0.14245381958868464,0.15611070395851723,0.10593784075454867,0.1302219371914425,0.07281819760203596,0.06226827281962276,0.075241395769489,0.04582627178857854,0.07615274458757945,0.023809157378465222,0.06411080688154763,0.03364085697949255,0.04008885172221255,0.01890452294358233,0.0525917216682836,0.006904254303158101,0.020779787956701306,0.03568971271326607,0.008672150340045686,0.017537361734991156,0.0260132482412053,0.026769463377912542,0.012522076708622425,-0.001077135393748374,-0.020293375936073454,-0.02551300713603006,0.01162780767664465,0.0007933262976034935,0.00828464881603767,-0.02092830366674058,0.002316498406284286,0.0367015702644985,-0.01199172420257251,0.03752220745724693,0.011901534365386336,0.020610214038980914,0.018666307791046884,-0.005389995975833204,-0.03226790308461993,0.03940282427622158,0.02578118457650861,0.004647843045754402,0.01282958750758605,-0.0014181344750050567,-0.01518169639067144,0.008376709703435828,-0.04485676554968193,-0.026038007099607647,0.005043066186092548,-0.013417087722096873,-0.023448667007677768,-0.00022139085424679704,0.022836035082468682,0.017983801757781026,0.026173763105430063,0.016358635188186022,-0.03388429679036914,0.004357857968845088,0.01935580440019559,0.019713391178286722,0.014488808674402004,-0.02117344882474934
hello,0.015853939582931388,0.0012002684630161111,0.004496730962094784,0.014353938776636394,0.029684531752570194,-0.0026199943406600757,-0.02401157512359449,0.0004350889635286793,0.01097491441831773,0.025377738158443245,-0.0016700831115027408,0.028346614405915033,0.016962298020045084,0.020740046114801826,-0.002180779130626983,0.02879793298679136,-0.011448051239601345,-0.011164827048309792,-0.015162000270808253,0.008244990218161533,0.013362691477055117,0.01060763537808039,0.02519611863900234,-0.013286993504187977,0.009389200905549535,-0.020954171127257698,-0.009354793481986867,0.017685714236426002,-0.0051895660639588986,0.0448786593087934,-0.027769476081923896,0.022234160596329475,0.019632581250361058,0.0021545907098333116,0.041687131064005255,0.0020099891393676166,0.006446400467557029,0.04737354181650261,-0.006669278425119243,-0.03763319674357925,0.013944592742716392,0.004132382077645044,-0.005842032566023385,0.022018312386854498,0.04417593931975767,0.0503864566384717,0.011370246517878643,0.03671889685044824,0.04684975726064853,0.05494527376665911,0.040688700971897154,0.07078135351605469,0.10544309932057747,0.1344509070266734,0.1052721343500448,0.08841537956852102,0.11262567756426119,0.13128580925755878,0.14291414658402518,0.15924413456012748,0.17799722949756264,0.1750110876382681,0.2186558036700175,0.21727806056659835,0.2233967184132237,0.23363992125789143,0.24061582045274044,0.25295800301539323,0.31012018843800937,0.32972663861427787,0.34007157020131973,0.34548276888716983,0.37471528703180057,0.3770299457398669,0.428113998154943,0.4865174963295404,0.4664599375939056,0.45263115205285487,0.49676819891398577,0.5052269095842403,0.5497976784488896,0.5987869957752068,0.6096992296907392,0.6059337380002716,0.6207431376814803,0.6853209127821007,0.6631124917308959,0.6813982324280317,0.663244470948859,0.7277429481786714,0.738847742481373,0.7654566708697007,0.7622614486072448,0.766274365406392,0.7588697253627895,0.7735798654821947,0.8041743642478314,0.793801107473086,0.7796242947655568,0.7992330319773896,0.7678884136431351,0.8128413041292284,0.7756606588101247,0.7746672332989251,0.7767743153345882,0.7912191763422909,0.7947697694116506,0.7775970963801684,0.7213836645922124,0.7214926401224702,0.6987684809196337,0.7241901925991397,0.7082675353040642,0.6673743508923363,0.634028762950719,0.6317397406399108,0.6224314807185274,0.6130763065687482,0.5803743805605371,0.5485733013608515,0.5385997776952813,0.49227850483314056,0.48814253019145215,0.46122998463055603,0.44523349327363093,0.42345882906230353,0.395291674601229,0.34187874523606343,0.35062276159903233,0.3392266357188469,0.32178115541655194,0.2773471629453651,0.2879970423611333,0.23998857511392166,0.2536630551479654,0.21950282756106124,0.23182340379261193,0.14431395976520728,0.17363467599229646,0.13895371099482734,0.1296140576231801,0.11402130583709587,0.12517502592855573,0.09939570385984192,0.10718063012124597,0.10230251170529901,0.1051374938334625,0.08759460113546523,0.02640858912146008,0.08968105094936085,0.032758720985994125,0.06102545232039851,0.054215832903998416,0.08949913298351087,0.03429479779718659,0.07646164774101925,0.03822767126829427,0.05182428912538639,0.031181031738099586,0.012881510955095994,0.03212553046573964,0.052255788277103137,0.016677117886167592,0.01644834228144196,0.005948732706050004,0.008171475177039639,0.017915837529492322,0.04130672181806018,0.005739815792015591,0.007564313397645165,-0.017646073247827458,0.001476593631127033,0.030429913050351125,0.023704081380630126,0.0016030792549041948,0.010638587168294151,-0.02541836676234837,-0.004836919024911018,-0.003114394545748,0.0009616253783241849,0.020440969841103156,0.013735674017093786,-0.01851893786797944,-0.038034698994690766,-0.0179866784793959,0.045287938189410876,-0.0347953700255089,0.046097644846310806,0.003119760071864021,-0.004712076571173387,0.011706771839262999,-0.013676880886338135,0.00913084213026317,-0.0032436423877546163,0.04069325387799928,-0.019363575699153753,0.004425616331322505,-0.008280206349556419,-0.0020633002697895697,-0.04205822258844708,-0.014861099510291688,0.013580972735939237,0.012080681126698302,-0.03728096387897517,-0.010716986222458015,-0.0075120299534738215,-0.02776316772197602,-0.00017826376688429124,-0.00016217913515790983,-0.002332316719211237,-0.028903202405758006,-0.03268982435966744,0.025206511530974113,0.021367684135818958,-0.03376710353011135,0.01755925392639949,-0.0038775163326120483,-0.014009562003554531,0.02672672734450659,0.004728804854585324,0.001285979100806107,-0.014189531104733108,0.032605983685438496,-0.00937114415542498,-0.00673601646297676,0.00014054502199306812,0.026023165715432613,0.0058869891563496,0.012912945804118475,0.021478763625906845,0.0007001609414859643,-0.01649936888143995,0.009907329289827618,-0.013132104228114234,0.02275818761001553,-0.014485324554601142,-0.007755900127554201,-0.007043890176751888,0.002582285846749674,0.051854355430850096,0.021041270054794822,-0.004788846787337979,0.010420980431677027,0.010167648508137795,0.05381844633379539,0.03777210925833803,0.07623873234683953,0.036780393864531906,0.048511819108254375,0.07927778112355606,0.05676891070761336,0.08853753912014639,0.07302583429535597,0.07035880534787523,0.09879385896308945,0.09620825492801298,0.08056045635155655,0.08079021235308906,0.09142515912467797,0.13323969198142713,0.08683646530540809,0.11160309765877917,0.1589720681252511,0.18893071329154842,0.15077571675942678,0.23183873949980566,0.1840065668640258,0.21990130468938335,0.23685921538254237,0.24566464010259603,0.2306491623407853,0.26219062121838455,0.2730023338286004,0.31573114325080487,0.3454360474789377,0.3557814367127164,0.3720225772796536,0.3305690867401926,0.4013974216615406,0.39133699253751997,0.4469501802642962,0.42599942831140836,0.4556767120889675,0.45754361995521925,0.45230416080976593,0.49277696073400695,0.4872294424493453,0.4896148694940066,0.5395115399676982,0.5566871187701893,0.5566473778908391,0.5747525792385201,0.5700546311912498,0.598313995595475,0.580542405095013,0.5743091785037915,0.6061900731599409,0.5869523064228712,0.6279923587808875,0.5685076757248515,0.6090350153027025,0.5764393840097352,0.6092709737484708,0.5935455440582437,0.6209258339778794,0.6063181958283284,0.565245313214014,0.5849853503160087,0.5480512825126268,0.5740423243757588,0.5293886249226013,0.5227164837709792,0.535327882455452,0.5003950376235663,0.44105344224082377,0.4672036706768803,0.449549686113687,0.43017227974914046,0.41321924329722637,0.41714237918448815,0.38524443020145005,0.36378368007850126,0.3805345609788173,0.32961734690263617,0.3115942343782104,0.30338308869368746,0.3055910476447687,0.29262063110202846,0.27489022038203015,0.26269734502950337,0.24115243814593454,0.203831941812767,0.21048088216670968,0.16970386410346247,0.19348772239224088,0.13605203055581735,0.15703678364947632,0.15000858503214598,0.11562785033742701,0.12545391141776346,0.11854642516302544,0.08088516081779443,0.09438562902971219,0.0879403560649974,0.09975174882858356,0.06124508421812498,0.05300921169185724,0.043420175328104896,0.09075624729494904,0.047987539218109436,0.032609952106879427,0.05153341396785277,0.03728598831493996,0.07543174780866652,0.059000527368867434,0.016858145738172778,0.03947335635779177,0.030630039027644385,0.035282934543721466,-0.01083382204062178,0.018935659138425143,0.017493728882140635,0.015893344032748044,0.020329811688784446,-0.004474463562805311,-0.005482138645959358,-0.04226904188477673,-0.03282016511591098,0.008445622288646534,0.04049463412256002,-0.034331874944056956,0.034933250444496175,0.015689526802467848,-0.005266240280243305,0.021725239420143982,0.01894276788198812,-0.0111587404277854,-0.04135131833739174,0.01833869048330675,0.03748330261242563,0.0011289069214448111,-0.012845330940562196,-0.02108276385873134,0.003873960538264289,0.0048773267894005636,-0.020468501022912103,0.0026696780749827015,-0.004770441458853217,-0.014591238011984102,-0.009817716934845701,0.020286949728080334,0.02977758678639428,-0.009116144023225728,-0.015296916264558319,-0.021173807503166726,0.010001788196821026,0.03023115053758989,-0.0030982016033764513,0.012171858815736701,-0.004922551895453574
hello,0.015486289509708463,0.0006828989952518034,-0.005676227747995867,0.00905209988831494,0.02084234465960277,-0.01916865996045692,0.021845827568545043,-0.011837501655747753,-0.01117819114048918,0.0005806082090740208,0.025648731058817223,-0.03150159459920161,-0.01586950772668725,0.0054003715422913535,-0.02820058403459901,0.014723152208459505,0.0018871077492704988,-0.017057190897348425,-0.02915678663270987,-0.0048698415938071265,-0.015597813880604675,-0.014508236446537624,0.0038198631630959644,-0.01335160599185538,-0.014071263121618476,-0.03612966000348459,-0.007332044925240113,-0.0009208972736202831,0.005216337518052068,-0.013798158306364335,0.02452355893785608,-0.017639694596071013,0.03558818811691406,0.02075200812017393,0.016578789835862133,0.009452160009503892,0.010689343818151991,0.034955668563557474,0.0010243911529267576,0.022180852783201976,0.0038251244579231257,-0.023181841656140213,0.013971454573033719,0.037679697002683574,0.04532268973624022,0.06527658363190508,0.015449655347475767,0.040376343736502486,0.0767421031664548,0.02582423280252534,0.04220762405790149,0.042106144407417806,0.036312069316086104,0.07345895729259845,0.14548067385623642,0.11887784499488493,0.12899235305277074,0.15683983119491904,0.12797382957657596,0.17825098844532775,0.12004832809665861,0.1913853832968077,0.17401247987975,0.21203627720513335,0.23322395110717697,0.22347571889438259,0.24753299775767773,0.29775330209563594,0.2620752627547399,0.3016795079369623,0.34684263513744196,0.38819459223314406,0.378671180871304,0.3928483605136888,0.41438154908190117,0.4162537815937034,0.4714484921077591,0.46225760132971255,0.5339979914828922,0.5371262956959596,0.5483646885838493,0.5728814112729392,0.5980694915911435,0.608916086096741,0.6383939258961634,0.6520828292891263,0.646119663412455,0.6869049303676884,0.7247644860576367,0.7141771617203989,0.7163455720517914,0.7677937982240252,0.7649156269704975,0.7501558198519979,0.7797510588213827,0.7598085394382744,0.7836231432712305,0.7991270946414064,0.795862101156884,0.8190550207387362,0.800789717758168,0.8040394391138542,0.7847029201418402,0.8181644848182584,0.7505311727767277,0.7920179968339917,0.7718388465016145,0.7559519475943699,0.7219840983698899,0.7562566749549406,0.7182370037732537,0.7285689553930339,0.712116755889772,0.6621366790763074,0.6256889725594525,0.6396168608063895,0.5927314893273207,0.5855845258374098,0.5853686946665209,0.5376620056457944,0.5622575909564945,0.5116442175603608,0.48839821778135994,0.4575699911351547,0.43314716724901997,0.3569966867602147,0.4315249631014586,0.3814671976374739,0.3709454190520795,0.3529631831734484,0.3105672750406184,0.27960495583254436,0.2704426205416268,0.28270113458403623,0.23783947059293187,0.24211703970962037,0.2232435818155429,0.21675825248265865,0.17606527223343782,0.16548555155031452,0.1555527361486153,0.14410537203477544,0.130389893476708,0.12213187098237822,0.09437670011903586,0.06766179361561296,0.07386655657345637,0.05836873546705242,0.09909053316886034,0.0557942358243333,0.060502717766413826,0.06191667651540711,0.028230972432232177,0.057101420998191606,0.05599175309415502,0.004759808099567893,0.045259518726662964,0.03540000944554549,0.040926230356868716,0.05025726592045837,0.006878715430965134,0.0011012461946261834,0.031104417600999894,0.001921664125788718,-0.029318351213342475,0.03466825087202507,0.005081406722764772,0.029485614620207184,0.006034215123970612,0.02413484367498953,0.0025876352775903253,-0.0034471977138618125,0.012707025116346322,-0.009504912350900537,0.0027914178379766313,-0.029138323782889115,0.00393088724844241,0.04493258018025856,-0.013840270852130413,-0.011757476731489573,-0.00994895521035981,-0.0074566232279399455,-0.009668372133286973,-0.028766774825722683,-0.0007811920154948284,-0.002002519273983733,-0.029431796533848174,0.028668946151218143,-0.019057758265074685,-0.02031909855394385,-0.020865814819563948,-0.031082008986392566,0.032444594653121134,-0.008246007523958297,0.010426305019359811,-0.011691952628640928,0.0359691929322212,0.0064373385369318374,0.005335395304745104,0.04058943270446847,0.00262881844136978,-0.0014559457382787365,-0.027889789624456145,0.009516830322479818,0.010316160366553877,0.019142615003894598,-0.017422861829793003,-0.03477441921600016,-0.001066447002027954,0.004971554153333855,-0.0027909753492429035,-0.004245669737655476,0.02329008335793777,0.02357007975347711,0.016085880339133996,-0.017771345030978044,-0.03198274754274341,-0.005476220051853245,-0.034914001774494906,-0.002222614450188765,0.01401276843739994,0.019110131784304266,0.006875420201768471,0.027772080478211683,-0.006379226565623465,0.001343073940041751,0.020577735911989598,-0.0031973128442337995,0.02970265114081649,0.03907459768887595,-0.0063959102456941945,-0.013784159947042107,0.00590952023162728,-0.011003210178693757,0.04762349716581236,0.015622115067621827,0.010946597380169256,0.0115066025483691,0.015983224977738197,0.03035451401052302,0.03930358747970979,0.024037728480784604,0.015529375624786486,-0.0018006554256033043,0.04917689639149038,0.06215232568487377,0.06224086859424753,0.06207856577260136,0.055587333853960356,0.058685183754385375,0.02854522887400927,0.0827734370605536,0.0666390541989287,0.08900670138700364,0.09163740432590411,0.0755503198404205,0.05249601308375126,0.09451666621202925,0.09565691210421455,0.09917065302707723,0.1188670619815602,0.11148788998783926,0.15940487991947294,0.1626594210978288,0.193509743334328,0.1827053737150281,0.2289423473811732,0.2089980973290764,0.18903510680892038,0.23951191988402354,0.2557276463833434,0.2804423215844625,0.2644920256415505,0.30682216260840495,0.3166694533594922,0.32363704749111616,0.3546875418978519,0.3796485944309263,0.34528084439804396,0.41790676506988983,0.3827382901931754,0.40093508294010644,0.44299745603427365,0.48112581516740693,0.515751490937357,0.5107363926127072,0.519759344709688,0.4951422199738969,0.5189583292544253,0.517939514511757,0.5400370089208545,0.5814283631176226,0.5655818642049364,0.5548345135322764,0.559766885042585,0.6282753165122028,0.6083014572820676,0.6283243164874805,0.5932557292042954,0.5804250612827536,0.5725400684687454,0.5975841859588318,0.5586121949488524,0.6308326681534767,0.5504839714834516,0.5862699926735266,0.6007079890059462,0.5806370394173389,0.5482553053012301,0.5875069913002245,0.5393452819895752,0.5530727038720364,0.5040555962124718,0.4843469557082142,0.4891980946053709,0.4549197123753217,0.3882444020978241,0.4388387046003422,0.3942453526413963,0.4077961172796951,0.385126645047947,0.39427465769602216,0.3470741012574444,0.30694333613950825,0.31192980190795677,0.3089057336860086,0.28918145143390145,0.24619487103663729,0.2587328994389736,0.2542555856323168,0.26293205233770783,0.19861240628593274,0.20747211641338004,0.17604912174453619,0.13808574736838372,0.1927517137098079,0.1431842616348543,0.14682557451282216,0.1558660694089271,0.12202236148696918,0.11493344943562235,0.09166782299934526,0.07303122240248101,0.0785614666279976,0.09818718667764349,0.04517371067284183,0.04411291283679969,0.045288587118517486,0.0547454044711839,0.03605877576937583,0.05716166425666896,0.03443035096734568,0.0316165189449531,0.01722898415090558,0.010618925452506325,-0.006996318219399736,0.033204196702666985,0.027476403162223384,0.022267226008350502,0.028312020466941874,0.04035842736868615,0.004538185676584407,0.029608413162389918,0.004286150069350631,-0.025257874784058137,0.018315389582158628,0.005843765271597405,0.006601134905722025,-0.031793139487638664,-0.00513698130661297,-0.015570683114748664,0.0004555173000093172,0.009352796762687857,-0.008590743156575473,0.0052375518175785795,0.020903334489196457,0.010229273592410376,-0.0070799117863886325,0.043699881488958224,-0.02472485438130351,0.009804732685479987,-0.013916937075088072,0.03181109221115594,0.004998058886252672,0.017311592989044954,-0.0015519923182772295,0.010970675309108424,-0.0011820035519209287,-0.0036174065850983973,0.001152601777272,0.006267178939696096,-0.04515172979083995,-0.012658723364195953,0.016857508636609484,0.0057283180609045215,0.024247734320275004,-0.0021729696581937203,-0.011396905948861774,-0.006038890938367739,0.01600354993060348
hello,-0.00877672538757226,0.02791526524602861,-0.03167185283360949,0.015171535172749055,0.008525297498830832,0.015126243527837849,0.007964015888465955,0.005221777324749082,0.03045626435331675,-0.0018355338007263,0.007229601839179641,-0.023473665178940922,-0.01841129847256635,0.021392046852066363,0.007696640853827681,-0.025388551285731926,0.006204529272006907,0.008879932670561079,0.014225955514656448,0.03869781925450965,0.03374149004177164,-0.022141610436561106,-0.005943700377959173,0.01136814380406219,0.010815471395374057,0.013208171635995893,-0.03962437369866446,-0.013960603793591722,0.029967039190384813,-0.00657315123875613,-0.03967684324228173,0.0031417393821102447,0.005957728221175464,0.02763050839751391,-0.013824332311512724,0.005114256458114696,0.020824483785857474,0.02534565056684883,-0.02212177244703269,0.06306943383766492,0.04325505358560314,0.022045699209449723,0.023097457281197664,0.04575320232830392,-0.005476801129785172,0.021930548236276413,0.014192516550467424,0.032747162367809377,0.022240333852457092,0.03312721131627222,0.04261820612166388,0.08094427348360443,0.06798351528508953,0.11936273001923906,0.10943832953409727,0.12556553036293347,0.0928898271959806,0.12809274522006134,0.13936182861478807,0.15000030752487958,0.19802011036391282,0.17318024031883922,0.2184234058203391,0.19286757780602537,0.1939630807924707,0.2399512754631092,0.233470925190414,0.26544635337318756,0.2602206135611805,0.320795026995517,0.3230384863321847,0.37897235268234464,0.37062869061126025,0.3833225200332112,0.3923421984108831,0.448934254725325,0.4278784869625701,0.48893773869372537,0.533906949485861,0.5309729576142901,0.5429988317782097,0.5562524425173236,0.5796228999371127,0.6341835686563488,0.6461103544479652,0.6504064904977295,0.651898656418081,0.6692233650398196,0.7214391697091527,0.7323531123690266,0.7694343785548463,0.7569347702515267,0.7629621579927487,0.7373356044199864,0.793229898664061,0.7826116477945084,0.7671267908270123,0.80753461776369,0.8180252803832632,0.8052863015454155,0.8170077834362464,0.8180000294941105,0.7958966166973639,0.8055520029119294,0.7860270251442733,0.7888086305690616,0.7388750736522105,0.7714636717410118,0.7388953892976642,0.7179474160954881,0.7039085822153044,0.6684815575823927,0.6580390327877604,0.6485735117017258,0.6251652354689319,0.6066973474960533,0.6019051540592677,0.595597709052646,0.5638355827381143,0.5404555299498591,0.5229942809374571,0.47352405944921855,0.4573672936083626,0.46362944053161725,0.457306034806239,0.3909061081715707,0.4189691867341884,0.39381485263063193,0.33630847873566366,0.34535984055198626,0.35121366126624076,0.28448493851272105,0.23777812936378245,0.28144559660408514,0.23571692751638693,0.21847851765621343,0.22098292067053502,0.15983257102208145,0.15642950021808869,0.1857657513540147,0.13865612622318144,0.11462830630083844,0.11569769160469152,0.11527655636869927,0.09978046141115998,0.1024426707986604,0.09391550460011851,0.08545389045326919,0.0819685861291205,0.03453239405881671,0.03591821558255248,0.04204463670804269,0.03849939487653156,0.024712546362673508,0.06627716704322864,-0.018130297310699622,0.022485739583637282,0.03256600730698602,0.009756006479120989,-0.004631213508606631,0.04973717829732145,0.05120287950298924,0.026352369407523626,0.013749928721252106,0.011455234705062586,0.003283018923627622,-0.013849517431562123,0.025122567478661074,0.009500995428481368,-0.0050763738655041,-0.021189196358709306,0.025679238427393232,-0.028310524434795516,0.02445380138120555,0.007552997332909132,0.014728486118868449,0.00450252113935082,0.037075955726591586,-0.024436682603630314,-0.04366987979003863,0.0029435444283618137,-0.004690948433825593,0.00551086909629071,0.021912361974410495,-0.022144362715323933,-0.0025378810279170524,0.017768547515566085,-0.001312933471906298,-0.0026275903491777934,0.015413905954522638,0.010014444258248819,-0.05115494297076381,-0.005402564483274558,-0.00098000504598197,-0.03930101252340247,0.014277752326960704,0.0075145157247680314,0.020625874047681812,0.0053582118513821175,0.017017039838300968,0.010171765672844061,-0.0019412975967806308,0.01152157481262895,0.005216656789264663,-0.019381172499316028,-0.019147650451552506,-0.0014579465715491055,-0.03167281908097748,-0.003774331401993725,-0.017323089513805564,0.020600482624019676,0.015807136261756,0.007291705848485868,-0.028451025506521437,0.0013355901356227138,-0.010625031386206046,-0.03856567822136719,-0.0016409572035256626,0.021662161081317372,0.00042031553971148144,-0.02317307764680153,-0.02652668896418295,0.026708347865195763,0.013306555969829267,0.05647880147374818,-0.009972156844077339,0.032101189724169324,0.0353874092547573,0.0039490056178178475,0.008014948424516305,-0.009521563845444923,0.04145613011208304,0.001632531824158851,0.007291363952792873,0.03412057912813588,0.01635142734764665,0.021232658181510666,0.017000928043016988,0.019878128977146404,0.039960156450443776,0.0161743455392777,-0.02046740337252278,-0.026596232723144382,0.026180832701780326,0.06993643436456387,0.0030299200491221527,0.05280856085296184,0.04626315627608671,0.05626180750226225,0.03118396090299405,0.069857806928018,0.02367160422404531,0.0688974432152279,0.07506903347814527,0.05074081987210853,0.07373539447108303,0.08882756953990108,0.08466861160864489,0.1118899752005959,0.1461625864870419,0.10975636050688554,0.15805471244787295,0.11726181924156717,0.1446280965835996,0.17395527094325366,0.1732056104509926,0.19705256959316952,0.20418178775207219,0.19924070813176709,0.22023259857684419,0.2629584557201433,0.2547093411790536,0.28723519232567674,0.304786120293916,0.26522284779936256,0.3314388124253065,0.37574349017965336,0.4005493861532705,0.4217480365512035,0.3750886124549737,0.42165640194152415,0.41079249049734695,0.43351805730322807,0.4697964335713595,0.44182013540330556,0.5206934713254857,0.4726858115840913,0.5238696490909099,0.5457886142690862,0.5554739428787872,0.5635059260430559,0.5397788333934529,0.5647231319855623,0.5657934941284104,0.6386926183233916,0.5746227135329272,0.5951349297865165,0.6096918115882816,0.6030395972066974,0.5965224716243331,0.6233415942759667,0.6309901565064069,0.576132511509628,0.6043193908851688,0.6230504506852412,0.6005455336166976,0.5703529835129493,0.5991136053711825,0.5645009239174247,0.5586458746864489,0.5415964321024904,0.5514620215362558,0.5094271245421059,0.5282343375444234,0.5137916875566919,0.4727494346234606,0.41067882417976026,0.46106532995723615,0.41257559778649605,0.4181797760292535,0.3811358877149346,0.38439782723238725,0.36485536115872624,0.33888162360987,0.30926221183151814,0.3081566792709492,0.2913755137720851,0.2599777764007239,0.28978077109871864,0.2559830717631521,0.23152174656846233,0.22365415833364083,0.16483778903063134,0.1927688583356286,0.23005794147810815,0.1501912679280812,0.15660060194899816,0.15211857522789807,0.14038991062462647,0.1185340641808425,0.12064961347415419,0.09837377754786898,0.0682755287282875,0.08745703581371149,0.07893679278123644,0.08649524374010714,0.08324918436620336,0.11471628023737501,0.06676651365560182,0.07893042675036693,0.009238501901520611,0.025313654990717447,-0.00364010946742082,0.012894614936120742,0.06264663314064353,0.06460085186438216,0.021934697122138695,0.04428712546496879,0.031585777446324896,0.02897088350457036,0.06630360758063042,-0.020553659809341818,0.022220271112628948,0.010379665622674738,0.017494158575748334,-0.010829461677526462,0.0034474346302086276,0.02585259130376108,-0.013904740078402925,0.009292083074416608,0.0034163883989860215,0.006193692238214687,-0.011831204053478761,-0.01603792506335921,0.010292151976772652,-0.0024882577285114302,-0.020560862314691772,-0.01827240525594626,-0.004696848202593765,0.01736150474555792,0.0006479706262770183,0.029665234686268565,0.03206420964678916,-0.039216056917459635,-0.021863452876266454,-0.017124690374085247,0.004769351103751197,0.045598537678028864,-0.03331046157904219,-0.043721470346874916,-0.0045346669896741375,0.012924008244769114,0.016094713942854423,0.03735426748754426,-0.021866798602386835,-0.005265481169867857,0.000872370005511492,-0.0020747307801563266,0.04504854807080637,0.002956424656054489
